Angle (rad),Angular Velocity (rad/s)
3.000423801480182728e+00,1.694349247712331752e-01
3.001692726359103780e+00,3.378975506404335860e-01
3.003799681838373203e+00,5.045057992234351918e-01
3.006733351732337578e+00,6.684582348368922622e-01
3.010478680915248617e+00,8.290652127703731500e-01
3.015510550797357858e+00,1.182180741066629182e+00
3.021797030794240779e+00,1.331573026133299642e+00
3.028817866467137687e+00,1.475921434551960010e+00
3.036547932742507339e+00,1.615286735360355941e+00
3.044962740042272298e+00,1.749859523658247706e+00
3.054039040700044172e+00,1.879943158678895054e+00
3.063755351911082503e+00,2.005937720779459532e+00
3.074092404145525759e+00,2.128326445685474244e+00
3.085033530181073402e+00,2.247665684322580848e+00
3.095829485956104854e+00,2.071195367261307041e+00
3.106479905293006105e+00,2.188662403478375040e+00
3.117713498075695089e+00,2.304564832777024286e+00
3.129524008051494111e+00,2.419542758587254649e+00
3.141908589309399424e+00,2.534322227040112008e+00
3.154868272152816289e+00,2.649730951765672859e+00
3.168408528457960838e+00,2.766722809100010227e+00
3.182539987836721096e+00,2.886414330834245145e+00
3.197279376388489691e+00,3.010138316198249786e+00
3.212650782754052692e+00,3.139522902379348501e+00
3.228687410626729815e+00,3.276610072024853881e+00
3.245434069844521652e+00,3.424037868565073861e+00
3.262950823340514450e+00,3.585330314222463510e+00
3.281318515129717728e+00,3.765379080934631695e+00
3.300647513549359591e+00,3.971288188550313070e+00
3.321092300456575330e+00,4.213959973871502562e+00
3.342877566333727568e+00,4.511348164330007293e+00
3.366349470113702669e+00,4.895976724221377196e+00
3.392090749022687479e+00,5.435575793368873754e+00
3.421239677726965134e+00,6.307660354145185444e+00
3.456811584113467006e+00,8.270065209502789116e+00
3.527681143743628844e+00,1.397669520312717850e+01
3.576151784832505509e+00,7.691936073445769573e+00
3.610335069295843802e+00,6.185917875637606755e+00
3.640188892871051962e+00,5.787131541805226043e+00
3.667605375527634326e+00,5.216845039921516936e+00
3.692634146508539050e+00,4.815432356172681949e+00
3.715923410026659379e+00,4.513283493475225505e+00
3.737873801921890671e+00,4.275692662471665351e+00
3.758754857704414309e+00,4.083052018483533274e+00
3.778758898231894481e+00,3.923289890851207939e+00
3.798029230375517873e+00,3.788491663772827422e+00
3.816676262081999838e+00,3.673212192996834435e+00
3.834787341895459889e+00,3.573559843288324878e+00
3.852433086542160989e+00,3.486666002068284254e+00
3.869671623672054306e+00,3.410361403835136418e+00
3.886551536312361055e+00,3.342969993202132173e+00
3.903113966184001971e+00,3.283172847760787771e+00
3.919394153574175643e+00,3.229915567175258850e+00
3.935422588867011573e+00,3.182343567205402568e+00
3.951258539553183180e+00,3.152607022567586625e+00
3.966923170099076579e+00,3.113944951430104968e+00
3.982404596169281774e+00,3.079249709036254945e+00
3.997721579340234310e+00,3.048103835289241559e+00
4.012890956040797263e+00,3.020152571641613104e+00
4.028053296815311768e+00,3.044564799827374380e+00
4.043334541675116967e+00,3.067739117229697943e+00
4.058728862843768326e+00,3.089817909773553417e+00
4.074231110901729735e+00,3.110930389333461665e+00
4.089836752605215509e+00,3.131194042594815929e+00
4.105541815560455277e+00,3.150715926903284281e+00
4.121342839026101323e+00,3.169593828131438418e+00
4.137236830190034631e+00,3.187917294881195573e+00
4.153069357141361273e+00,3.145765122008514325e+00
4.168845553893862466e+00,3.164639524740616938e+00
4.184715071521023511e+00,3.183105233716327032e+00
4.200676038801140599e+00,3.201230330771047239e+00
4.216726913130959709e+00,3.219078272507883032e+00
4.232879636723145822e+00,3.241917348808927901e+00
4.249132691275499418e+00,3.259282981418263780e+00
4.265472294460348479e+00,3.276545274796192508e+00
4.281898054442712542e+00,3.293753738730531566e+00
4.298409820710111795e+00,3.310955450238127984e+00
4.315007672752846801e+00,3.328195386759344565e+00
4.331691910346443741e+00,3.345516734435507455e+00
4.348463045320504428e+00,3.362961174947583842e+00
4.365321794714857262e+00,3.380569154109590801e+00
4.382269075239254796e+00,3.398380135167023752e+00
4.399305998967087739e+00,3.416432839547181910e+00
4.416433870206885715e+00,3.434765477643106024e+00
4.433654183507957924e+00,3.453415972084650232e+00
4.450968622768537664e+00,3.472422175858190574e+00
4.468379061426459131e+00,3.491822087580255918e+00
4.485887563723848892e+00,3.511654066210319058e+00
4.503496387048762983e+00,3.531957047505043690e+00
4.521207985368347337e+00,3.552770764572311002e+00
4.539025013780109141e+00,3.574135974981070163e+00
4.556950334220504217e+00,3.596094697026320564e+00
4.574987022383509405e+00,3.618690457942516314e+00
4.593138375916417715e+00,3.641968557110045968e+00
4.611407923976070578e+00,3.665976347616802133e+00
4.629799438246526400e+00,3.690763539931088300e+00
4.648316945539084699e+00,3.716382531926920585e+00
4.666964742118254073e+00,3.742888770095468498e+00
4.685747409923131990e+00,3.770341147498698309e+00
4.704669834883678625e+00,3.798802444899704422e+00
4.723737227565824703e+00,3.828339822576636298e+00
4.742955146420549717e+00,3.859025371629097201e+00
4.762329523959456523e+00,3.890936735184927553e+00
4.781866696236436454e+00,3.924157811870011781e+00
4.801573436082544610e+00,3.958779556313072323e+00
4.821456990622256633e+00,3.994900894435020167e+00
4.841525123696933441e+00,4.032629774971386638e+00
4.861786163939685323e+00,4.072084383295472065e+00
4.882249059390098012e+00,4.113394549410887890e+00
4.902923439714240494e+00,4.156703389312354169e+00
4.923819687313728544e+00,4.202169228236905418e+00
4.944949018878827651e+00,4.249967866269451555e+00
4.966323579279775302e+00,4.300295262177406208e+00
4.987956550117755405e+00,4.353370731396221771e+00
5.009862275799316755e+00,4.409440780390249337e+00
5.032098858693456300e+00,4.486058961047071136e+00
5.054731959541408415e+00,4.568136212731827683e+00
5.077790266133288100e+00,4.656243783892360710e+00
5.101305551152626627e+00,4.751047436450078543e+00
5.125313194537608474e+00,4.853328212382360007e+00
5.149852823782969047e+00,4.964009138152425393e+00
5.174969106869256485e+00,5.084189991284457477e+00
5.200712745298811335e+00,5.215193186080767873e+00
5.227141733313220406e+00,5.358625263160887719e+00
5.254188643676168446e+00,5.461599750573729040e+00
5.281919837410102403e+00,5.633847690748846837e+00
5.310559496685097081e+00,5.825549222922797199e+00
5.340214112934789981e+00,6.040559746890002302e+00
5.371012261845332425e+00,6.283926927720662192e+00
5.403111781285566906e+00,6.562416766520125400e+00
5.436710300593215806e+00,6.885357844410916250e+00
5.472061283405967202e+00,7.266061812010740972e+00
5.509499636656228994e+00,7.724356732659073188e+00
5.549485059083327343e+00,8.291450059707512921e+00
5.592681239083327149e+00,9.020206949123787510e+00
5.640116419875097264e+00,1.000994689366336488e+01
5.693562351471512351e+00,1.147920580780463240e+01
5.756682234504994611e+00,1.406296696367805055e+01
5.841011160681670589e+00,2.000000000000000000e+01
6.005827803936797160e+00,2.000000000000000000e+01
6.089611737265526514e+00,1.484717143290883001e+01
6.158518888364121757e+00,1.295609790024330543e+01
6.220679806060658734e+00,1.200835050138421423e+01
6.279361451993617393e+00,1.152491206536167567e+01
6.336463567648733530e+00,1.136606173588207369e+01
6.393541070914992019e+00,1.152237944481780296e+01
6.452399290887002259e+00,1.211492128987418937e+01
6.516150950395571684e+00,1.362857921359366387e+01
6.594798232426764883e+00,1.970141646854013473e+01
6.726046842686316474e+00,1.640078213124774820e+01
6.794451395189613940e+00,1.199662759700575165e+01
6.849344197015562408e+00,1.015710734141693194e+01
6.897236455915577658e+00,9.077663098140190456e+00
6.940229284377185337e+00,8.170731957396139222e+00
6.979706439562324505e+00,7.642963269295626638e+00
7.016844266192516777e+00,7.227305335975854561e+00
7.052184582719166706e+00,6.918300114781984256e+00
7.086108832372659094e+00,6.658441145932688876e+00
7.118830640310136459e+00,6.435692742019901935e+00
7.150513782850912214e+00,6.241835291610128955e+00
7.181287325124772636e+00,6.071027631200204056e+00
7.211255273223488693e+00,5.918982941189454117e+00
7.240503000599148642e+00,5.782470181448286617e+00
7.269101681493394196e+00,5.658998842562054321e+00
7.297111441755095740e+00,5.546612109026519910e+00
7.324583655383450242e+00,5.443746828912577662e+00
7.351562655171163918e+00,5.349136119999766237e+00
7.378087031208552915e+00,5.261740022285805729e+00
7.404190632996340504e+00,5.180695092401244040e+00
7.429903354213576172e+00,5.105277091248966670e+00
7.455251755322075624e+00,5.034872910223888276e+00
7.480259563288896629e+00,4.968959137036263130e+00
7.504948076883161789e+00,4.907085472686412153e+00
7.529336498488548912e+00,4.848861746069215606e+00
7.553376345143035131e+00,4.768078827032134370e+00
7.577086846343135562e+00,4.716590570469080035e+00
7.600546733105052688e+00,4.667792621098323380e+00
7.623768873207409591e+00,4.621455874157243571e+00
7.646765051511689393e+00,4.577375618708641625e+00
7.669546082768259332e+00,4.535367981420542982e+00
7.692121908163092492e+00,4.495266957452787260e+00
7.714501678241663996e+00,4.456921913585090600e+00
7.736693824337316450e+00,4.420195473607286374e+00
7.758706120230822734e+00,4.384961714883077732e+00
7.780545735450190570e+00,4.351104619460998357e+00
7.802219281365696091e+00,4.318516734265514856e+00
7.823732851030378299e+00,4.287098003573660776e+00
7.845092053549899802e+00,4.256754743766182791e+00
7.866302043629490370e+00,4.227398735678699282e+00
7.887367546833273124e+00,4.198946414097281199e+00
7.908292880997692897e+00,4.171318137291444295e+00
7.929081974162131452e+00,4.144437522143016750e+00
7.949738379313120440e+00,4.118230832554268694e+00
7.970265286181351883e+00,4.092626410512306911e+00
7.990665530281089168e+00,4.067554140533363949e+00
8.010941599337950692e+00,4.042944939275463945e+00
8.031138145902458447e+00,4.036125784623358470e+00
