Angle (rad),Angular Velocity (rad/s)
3.000423801480182728e+00,1.694349247712331752e-01
3.001692726359103780e+00,3.378975506404335860e-01
3.003125850272483799e+00,2.354236082238061467e-01
3.004719646494874219e+00,4.018084613842926589e-01
3.007140399846071510e+00,5.660753114882299819e-01
3.010375635877299061e+00,7.274878393518497965e-01
3.014409480574775646e+00,8.854262865182112030e-01
3.019223291892760841e+00,1.039405440975718298e+00
3.024796358735216462e+00,1.189083688553356888e+00
3.031106624395341509e+00,1.334263955169380678e+00
3.038131397602497508e+00,1.474888113419422719e+00
3.045848023324503551e+00,1.611026820626781042e+00
3.054234495603864286e+00,1.742866825669469488e+00
3.063270004553652726e+00,1.870697615470009678e+00
3.072935418284115983e+00,1.994898975474778124e+00
3.083213707577817875e+00,2.115930710402033288e+00
3.094090326623761378e+00,2.234325488610036103e+00
3.105553567425859196e+00,2.350685588339119558e+00
3.117594909201358178e+00,2.465684272371363228e+00
3.130209387922183950e+00,2.580072629553934682e+00
3.143396016037362184e+00,2.694693037349730869e+00
3.157158289524806705e+00,2.810500989450497311e+00
3.171504830420177168e+00,2.928598027491477573e+00
3.186450230433593767e+00,3.050280161012550284e+00
3.202016189474633734e+00,3.177108917118939502e+00
3.218233089405670988e+00,3.311016923161578251e+00
3.235142222097826092e+00,3.454468480328179769e+00
3.252799029045186252e+00,3.610711694230556379e+00
3.271277963273621303e+00,3.784190784521471063e+00
3.290680075583813480e+00,3.981255328797984383e+00
3.311145446663227521e+00,4.211460095639608880e+00
3.332874891925517780e+00,4.490148619620221382e+00
3.356171193327317948e+00,4.844172899490924777e+00
3.381527251400670231e+00,5.326625758793981369e+00
3.409851486058900427e+00,6.064716779183474848e+00
3.443257332249604286e+00,7.497629868519617879e+00
3.491982444957581144e+00,1.580719131670526423e+01
3.564242247114226547e+00,8.677160429850001577e+00
3.602745883085486156e+00,7.009857778255766725e+00
3.634957301725159073e+00,5.977017389107154521e+00
3.663172103196438822e+00,5.352315074047156784e+00
3.689377656525752336e+00,5.140325817248077023e+00
3.714168389787244617e+00,4.792015035594781480e+00
3.737427680301387944e+00,4.522279701225536463e+00
3.759479650805975126e+00,4.305940298111573306e+00
3.780550736662441125e+00,4.127964667219576889e+00
3.800807016332767851e+00,3.978720717477474800e+00
3.820374876458132007e+00,3.851698618318092127e+00
3.839353326687661827e+00,3.742311557214032636e+00
3.857821768253506978e+00,3.647217663318671477e+00
3.875845122155160194e+00,3.563914249367575060e+00
3.893477342262741558e+00,3.490483527039444311e+00
3.910763897530420863e+00,3.425427007504247889e+00
3.927743572329766231e+00,3.367554097038556904e+00
3.944449801883992190e+00,3.315905036694541064e+00
3.960911682365030551e+00,3.269696297200733071e+00
3.977154748094259062e+00,3.228281060359469379e+00
3.993201578666141671e+00,3.191120081078839377e+00
4.009072279659341653e+00,3.157759844574717256e+00
4.025013108803075390e+00,3.217809808340184041e+00
4.041243117258846773e+00,3.273502407699236283e+00
4.057741554110664950e+00,3.325246700404149713e+00
4.074489635025993373e+00,3.373420451757199068e+00
4.091470389007565878e+00,3.418371487847926993e+00
4.108668512783343552e+00,3.460419370696165675e+00
4.126070234077660714e+00,3.499857255722037319e+00
4.143663184406272570e+00,3.536953829503778124e+00
4.161304314709997065e+00,3.519884712137969274e+00
4.178990727248751647e+00,3.554374514628377835e+00
4.196845169835662581e+00,3.587129754833166650e+00
4.214859451638979237e+00,3.618340599619251030e+00
4.233026294499035558e+00,3.648182190653474599e+00
4.251339261324848628e+00,3.676816038718500934e+00
4.269792691238896154e+00,3.704391328287881535e+00
4.288381641018558454e+00,3.731046131777170594e+00
4.307101832387012941e+00,3.756908535605679944e+00
4.325949604721930797e+00,3.782097682046812182e+00
4.344921872773642058e+00,3.806724732041990578e+00
4.364016089011684585e+00,3.830893754882668034e+00
4.383230210250295578e+00,3.854702551056763848e+00
4.402562668234347498e+00,3.878243414720823790e+00
4.422012343900233233e+00,3.901603842267341360e+00
4.441572104711210223e+00,3.922330904902636917e+00
4.461241944198571119e+00,3.945608017271832413e+00
4.481028279588407770e+00,3.968941872988140052e+00
4.500931581854623609e+00,3.992407022744115075e+00
4.520952689879184305e+00,4.016076165931352193e+00
4.541092802485334978e+00,4.040020664086882540e+00
4.561353473006194648e+00,4.064311042556867370e+00
4.581736606344311902e+00,4.089017486200729579e+00
4.602244458507275482e+00,4.114210335124973028e+00
4.622879638635038368e+00,4.139960586708004264e+00
4.643645113566863714e+00,4.166340410574100872e+00
4.664544215030385743e+00,4.193423683719063710e+00
4.685580649573002354e+00,4.221286553710193346e+00
4.706758511397677758e+00,4.250008038814495848e+00
4.728082298312337173e+00,4.279670675096463484e+00
4.749556931055864517e+00,4.310361222027903061e+00
4.771187776325951369e+00,4.342171440041115105e+00
4.792990446214332678e+00,4.379327527147768073e+00
4.814985484194294507e+00,4.419143795981000267e+00
4.837170175596424038e+00,4.454983987759495889e+00
4.859537940807931555e+00,4.492394579457659631e+00
4.882096960093242011e+00,4.531508807234708947e+00
4.904856110330413799e+00,4.572472385745216528e+00
4.927825032236332170e+00,4.615445493826311640e+00
4.951014208366772529e+00,4.660605110798909934e+00
4.974435053840112531e+00,4.708147784861172802e+00
4.998100022193579406e+00,4.758292937158658198e+00
5.022022729368541327e+00,4.811286834380966049e+00
5.046225538730314319e+00,4.870438742618033778e+00
5.070733438034507934e+00,4.933385097210091885e+00
5.095566378852685041e+00,5.000526991228925411e+00
5.120746467889234488e+00,5.072327336933851072e+00
5.146298307821008500e+00,5.149324084756208286e+00
5.172249412868282548e+00,5.232147071994850407e+00
5.198630720202093158e+00,5.321539752310465943e+00
5.225477225754853627e+00,5.418387585152046881e+00
5.252828783790573830e+00,5.523755660327210215e+00
5.280731125268799175e+00,5.638939361434592179e+00
5.309237173552578071e+00,5.765533811930958485e+00
5.338408771944049391e+00,5.905530997312281372e+00
5.368447096754923820e+00,6.114037086166295154e+00
5.399454607988933397e+00,6.292600369242379088e+00
5.431413491424144979e+00,6.495450897339891227e+00
5.464459656844972812e+00,6.728705240347799155e+00
5.498765312545036643e+00,7.000947538014003158e+00
5.534554634401876783e+00,7.324703639505118602e+00
5.572129569370948055e+00,7.719174491834105645e+00
5.611915298969227806e+00,8.215753262983845673e+00
5.654547880290151873e+00,8.870501390015819609e+00
5.701065996658143398e+00,9.797310758866162317e+00
5.753420743675584426e+00,1.128150338761696148e+01
5.816412193389930430e+00,1.441330619044363637e+01
5.933259324458401984e+00,2.000000000000000000e+01
5.996385087243648826e+00,1.015832459858675563e+01
6.039847418749368479e+00,7.600381114737253085e+00
6.076741408003425882e+00,7.206867175013775828e+00
6.112267625059507381e+00,7.029335231310792409e+00
6.147238951547859820e+00,6.975894814819044498e+00
6.182171447638057593e+00,7.010047626414863231e+00
6.217460748411344440e+00,7.117371014714848343e+00
6.253462676373037432e+00,7.295508782299141792e+00
6.290545220113665792e+00,7.551630568856850800e+00
6.329138549243029210e+00,7.904050663623287676e+00
6.369804742240882334e+00,8.388975616483090647e+00
6.413365523216125297e+00,9.078858531534248044e+00
6.461195401705471575e+00,1.013815325186210359e+01
6.516111567117109260e+00,1.205588521060716189e+01
6.587132843334746468e+00,1.782792928983938907e+01
6.700722155083272291e+00,1.241476903295656342e+01
6.749801544511998763e+00,8.338717964430390595e+00
6.786668821126292883e+00,6.594009505243395353e+00
6.816869847666257698e+00,5.558011233067476908e+00
6.842757737580874355e+00,4.833951268662763034e+00
6.865492560651518694e+00,4.281989739944968676e+00
6.885755469155232511e+00,3.837633990275943319e+00
6.903989640073575629e+00,3.466160274373974559e+00
6.920503644842121993e+00,3.146866464841978406e+00
6.935522919080398196e+00,2.866478942049424550e+00
6.949218152727161701e+00,2.616007793189658592e+00
6.961722172034688683e+00,2.389097112862411443e+00
6.973140574354413701e+00,2.181094222796038817e+00
6.983558740564225431e+00,1.988493288993755215e+00
6.993046633218397368e+00,1.808586710874899195e+00
7.001662181100599014e+00,1.639237956142455044e+00
7.009763395480811177e+00,1.601436384362616261e+00
7.017678349058382281e+00,1.564717667272466528e+00
7.025412225804875455e+00,1.528991471228798416e+00
7.032969783508361772e+00,1.494177401804952510e+00
7.040355399876780496e+00,1.460203610231967986e+00
7.047573112281367180e+00,1.427005634403760936e+00
7.054626652194282421e+00,1.394525428868166994e+00
7.061447280135880966e+00,1.334044419682588245e+00
7.068040569506800708e+00,1.303365395843771202e+00
7.074481842010164279e+00,1.273231238430451828e+00
7.080773728286371416e+00,1.243605022070921384e+00
7.086918682306900585e+00,1.214452943955884212e+00
7.092918996119705000e+00,1.185743984949449548e+00
7.098776813014814557e+00,1.157449615307929003e+00
7.104494139315518098e+00,1.129543538156152716e+00
7.110072854969311962e+00,1.102001465061731578e+00
7.115514723086999282e+00,1.074800919008352285e+00
7.120821398556849147e+00,1.047921060848484132e+00
7.125994435842756936e+00,1.021342535951318409e+00
7.131035296060278306e+00,9.950473382824760460e-01
7.135945353411702108e+00,9.690186895807282319e-01
7.140725901050554825e+00,9.432409316515129039e-01
7.145378156436800410e+00,9.176994300915077840e-01
7.149903266236193211e+00,8.923804880040848708e-01
7.154302310810574994e+00,8.672712684710843778e-01
7.158576308340180105e+00,8.423597247191441095e-01
7.162801898629983732e+00,8.477904904224421445e-01
7.166978737575122160e+00,8.229754487115369388e-01
7.171130107952902399e+00,8.374551980868027989e-01
7.175206887555051871e+00,7.933564117733132859e-01
7.179136315810393576e+00,7.784081535912755756e-01
7.182802135044707548e+00,6.881589285922468102e-01
7.186090137956372637e+00,6.271709505948965813e-01
