Angle (rad),Angular Velocity (rad/s)
3.000254246110151346e+00,1.016620872020183308e-01
3.001015938917987569e+00,2.029153479027664408e-01
3.002282095427228015e+00,3.033867745072032496e-01
3.004047913355367694e+00,4.027231604453809233e-01
3.006306891623214739e+00,5.005994762003563858e-01
3.009050989157954881e+00,5.967257637049154795e-01
3.012270813903397570e+00,6.908522951999355177e-01
3.015955833043670431e+00,7.827728954982439147e-01
3.020094595310291119e+00,8.723264713469081055e-01
3.024674956775709855e+00,9.593969124785552971e-01
3.029684302592870804e+00,1.043911616289812994e+00
3.035109758541687075e+00,1.125838938674051493e+00
3.040938387809730248e+00,1.205184889743981191e+00
3.047157370008397592e+00,1.281989381257612415e+00
3.053754160886739566e+00,1.356322300693581617e+00
3.060716632474515198e+00,1.428279643526657594e+00
3.068033194425450194e+00,1.497979887774387953e+00
3.075692898135970133e+00,1.565560749139311536e+00
3.083685525803312899e+00,1.631176415082695730e+00
3.092001666995325415e+00,1.694995324339952480e+00
3.100632785576522110e+00,1.757198535874978651e+00
3.109571280018778250e+00,1.817978718405930172e+00
3.118810540268572407e+00,1.877539788375956142e+00
3.128345004493843007e+00,1.936097230571930838e+00
3.138170219240978831e+00,1.993879151893843238e+00
3.148282906848519858e+00,2.051128146208121450e+00
3.158681044449858533e+00,2.108104089173549855e+00
3.169363959629891703e+00,2.165088040666636626e+00
3.180332448885410113e+00,2.222387516054241896e+00
3.191588926626988343e+00,2.280343507611962917e+00
3.203137614776426556e+00,2.339339812591242573e+00
3.214984786404481820e+00,2.399815485465763842e+00
3.227139081864634385e+00,2.462281629901515334e+00
3.239611923393584725e+00,2.527344368421327037e+00
3.252418065637572298e+00,2.595736828302474652e+00
3.265576337543535157e+00,2.668364640327339998e+00
3.279110659988455190e+00,2.746372289777021969e+00
3.293051471628396065e+00,2.831242725079636369e+00
3.307437778554453534e+00,2.924952069085721362e+00
3.322320193523756071e+00,3.030219809042725476e+00
3.337765616912749866e+00,3.150933552518897507e+00
3.353864794428743412e+00,3.292914643479819325e+00
3.370745273023299404e+00,3.465406753431336195e+00
3.388595425410036555e+00,3.684272400122796221e+00
3.407714067110775513e+00,3.979864928770814991e+00
3.428630530580496050e+00,4.420807353896318403e+00
3.452482986913003149e+00,5.215943746870324915e+00
3.483186202638848705e+00,7.773041540435620789e+00
3.540463632035683705e+00,7.596237084862444533e+00
3.572110180594322948e+00,5.568688504062253131e+00
3.597670275334294399e+00,4.746868898444127183e+00
3.620139425986000692e+00,4.276489802046726574e+00
3.640689016128396016e+00,3.961701764039307960e+00
3.659897532495989481e+00,3.732655428853406843e+00
3.678103921636554752e+00,3.557074125860538949e+00
3.695528106673811930e+00,3.417612744516396184e+00
3.712322881735770075e+00,3.303969477946640865e+00
3.728599762583781452e+00,3.209571877352868974e+00
3.744443230176226489e+00,3.129994734313729765e+00
3.759919185429962951e+00,3.062130571872697438e+00
3.775080264565441990e+00,3.003722292025082563e+00
3.789969337261104076e+00,2.953084385439813442e+00
3.804621896558613159e+00,2.908928701140347517e+00
3.819067743260293302e+00,2.870251265318896738e+00
3.833332204790718123e+00,2.836256314107938437e+00
3.847437037357390732e+00,2.806303855785334811e+00
3.861401106931706018e+00,2.779872585193013279e+00
3.875240912192475573e+00,2.756533092589015244e+00
3.888970992260792681e+00,2.735928143086746811e+00
3.902604248943693843e+00,2.717757916683074093e+00
3.916152204526432534e+00,2.701768795080972119e+00
3.929625210280351943e+00,2.687744727920859944e+00
3.943032616798493706e+00,2.675500503888865733e+00
3.956382914420573105e+00,2.664876448283733268e+00
3.969683849972120093e+00,2.655734202424217205e+00
3.982942524565406206e+00,2.647953333126299214e+00
3.996165476123817228e+00,2.641428585915310379e+00
4.009358749483009632e+00,2.636067642415553802e+00
4.022706131353250392e+00,2.702201884520629260e+00
4.036374171533873678e+00,2.764377774152626088e+00
4.050343772947913479e+00,2.822871634528915319e+00
4.064597195404021868e+00,2.877949624408065343e+00
4.079118001184274256e+00,2.929866396998673128e+00
4.093890995254150234e+00,2.978864271335478708e+00
4.108902162390736024e+00,3.025172812110504594e+00
4.124138603042588613e+00,3.069008728876247982e+00
4.139588469325275355e+00,3.110576019762156808e+00
4.155240902215375343e+00,3.150066297838421292e+00
4.171085970725816772e+00,3.187659249769614345e+00
4.187114613619161041e+00,3.223523186356359815e+00
4.203318584035181438e+00,3.257815653014158652e+00
4.219525531418157449e+00,3.225526539429415251e+00
4.235736034941846029e+00,3.258461070693184247e+00
4.252108108923367880e+00,3.290175424547479022e+00
4.268635956733317194e+00,3.320790067833395920e+00
4.285314365986597984e+00,3.350418321822758116e+00
4.302138674162458543e+00,3.379166899616869557e+00
4.319104736881256734e+00,3.407136430718160636e+00
4.336208898764829733e+00,3.434421969496701088e+00
4.353447966794599999e+00,3.461113485578011240e+00
4.370819186074276885e+00,3.487296335208734277e+00
4.388320217901399367e+00,3.513051713463932746e+00
4.405949120052943258e+00,3.538457087790404021e+00
4.423704329193950180e+00,3.563586613872719244e+00
4.441584645324083702e+00,3.588511535194653046e+00
4.459589218184675019e+00,3.613300567974905064e+00
4.477717535557851569e+00,3.638020273404865890e+00
4.495969413399525827e+00,3.662735419326453634e+00
4.514344987759177918e+00,3.687509333675805134e+00
4.532844708451457372e+00,3.712404252197936128e+00
4.551469334457591387e+00,3.737481663120990394e+00
4.570219931048541184e+00,3.762802651678214705e+00
4.589097868636820898e+00,3.788428247592849019e+00
4.608104823380133830e+00,3.814419778907536696e+00
4.627242779577651177e+00,3.840839235858298117e+00
4.646514033919189934e+00,3.867749648877750968e+00
4.665921201669104512e+00,3.895215485279444501e+00
4.685467224890835780e+00,3.923303069744341176e+00
4.705155382845353174e+00,3.952081034425134476e+00
4.724989304727842843e+00,3.981620805333176083e+00
4.744972984942846139e+00,4.011997132712310510e+00
4.765110801159639031e+00,4.043288674379160064e+00
4.785407535438330306e+00,4.075578642577715627e+00
4.805866708049790326e+00,4.108249472504815536e+00
4.826493830186407763e+00,4.142804385459641026e+00
4.847296888401786852e+00,4.178641464808361405e+00
4.868282563932044837e+00,4.215870310778436547e+00
4.889458108641582257e+00,4.254609790430294858e+00
4.910831394762563917e+00,4.294989434233579040e+00
4.932410972169050112e+00,4.337151060672134406e+00
4.954206134444271825e+00,4.381250678013235422e+00
4.976226995274672937e+00,4.427460724695137628e+00
4.998484577049865152e+00,4.475972725778078143e+00
5.020990913984687332e+00,4.527000463836082567e+00
5.043833111121333701e+00,4.610881836586875338e+00
5.067110285354290866e+00,4.701098314363107100e+00
5.090855805153989166e+00,4.798345354815693575e+00
5.115106810106235358e+00,4.903440081542434825e+00
5.139904886995666722e+00,5.017349605620647246e+00
5.165296907888060396e+00,5.141227954490846130e+00
5.191336080948541820e+00,5.276464893122974509e+00
5.218083284737802252e+00,5.424751467217003409e+00
5.245608786477369279e+00,5.588169525188220632e+00
5.273994490047724248e+00,5.769316390867363253e+00
5.303336930198267574e+00,5.971482366010500087e+00
5.333751343220461294e+00,6.198909930068707830e+00
5.365377333697854745e+00,6.457183505818560931e+00
5.398386984761559759e+00,6.753836068659130554e+00
5.432996853595253306e+00,7.099332667726826251e+00
5.469486432405078702e+00,7.508746034659304236e+00
5.508227986952405786e+00,8.004791783505844194e+00
5.549737876676362980e+00,8.623772594016095638e+00
5.594772331375582830e+00,9.428484011412507471e+00
5.644527541249675373e+00,1.054056738283044936e+01
5.701134283191880314e+00,1.224135930483329027e+01
5.769289110296380585e+00,1.543454126434963491e+01
5.867448890863962596e+00,2.000000000000000000e+01
6.011436309888072316e+00,1.881283416182193591e+01
6.093851028969528905e+00,1.507664178004555211e+01
6.165830512705859690e+00,1.391686318419604085e+01
6.234386059280294212e+00,1.360688680077390700e+01
6.302789403732171003e+00,1.384029319170988614e+01
6.373744051620632511e+00,1.465728628659658739e+01
6.451000517563634240e+00,1.649463117197462836e+01
6.543765837003536312e+00,2.000000000000000000e+01
6.694344896638749098e+00,2.000000000000000000e+01
6.767165136655608038e+00,1.167361850061809747e+01
6.818461847573180634e+00,9.156846250966269807e+00
6.860510655497269461e+00,7.770445295132389241e+00
6.896911829417599726e+00,6.842690048946676207e+00
6.929336580607088791e+00,6.157788376897825877e+00
6.958734307188271018e+00,5.621008860281792252e+00
6.985912020101670450e+00,5.260981288464535055e+00
7.011256706393385052e+00,4.887088644437726614e+00
7.034830225449181462e+00,4.550427911630522182e+00
7.056832238455240436e+00,4.256652251466412906e+00
7.077452584603308061e+00,3.996463540070156029e+00
7.096841620071729473e+00,3.763179086960605435e+00
7.115120900052512631e+00,3.551848345367538684e+00
7.132390379006859682e+00,3.358710557842984556e+00
7.148733429906492631e+00,3.180847480525983428e+00
7.164220443253531023e+00,3.015953059021611704e+00
7.179227307466666375e+00,2.986870715606196658e+00
7.193789048173402811e+00,2.839416270294724765e+00
7.207636319659910029e+00,2.700879134028789874e+00
7.220810827504010376e+00,2.570140797338190453e+00
7.233349155893593618e+00,2.446264211161600421e+00
7.245283578934810897e+00,2.328457086240938168e+00
7.256642711399833523e+00,2.216043902150311329e+00
7.267452036224852918e+00,2.108444273823148585e+00
7.277734336191337583e+00,2.005156028997186368e+00
7.287510050252982374e+00,1.905741824402839235e+00
7.296797569972075514e+00,1.809818453410599659e+00
7.305613487891466917e+00,1.717048224095639064e+00
7.313972806985603370e+00,1.627131946649117422e+00
7.321889118331053936e+00,1.539803183773273965e+00
7.329374752624294942e+00,1.454823501016317078e+00
7.336440910020117556e+00,1.371978515247732400e+00
7.343097771874317559e+00,1.291074584992341956e+00
7.349354597282389712e+00,1.211936020518758594e+00
7.355219806763108714e+00,1.134402717485154310e+00
7.360701055006623861e+00,1.058328137758224763e+00
7.365805294264572645e+00,9.835775762982612580e-01
7.370538829685104432e+00,9.100266648732545649e-01
7.374907367673664282e+00,8.375600726528046325e-01
7.378916058179647131e+00,7.660703710473881767e-01
7.382569531660906570e+00,6.954570359532725732e-01
7.385871931355868725e+00,6.256255651780366911e-01
7.388826941391445580e+00,5.564866925130415032e-01
