Angle (rad),Angular Velocity (rad/s)
3.000254246110151346e+00,1.016620872020183308e-01
3.001015938917987569e+00,2.029153479027664408e-01
3.002282095427228015e+00,3.033867745072032496e-01
3.004047913355367694e+00,4.027231604453809233e-01
3.006306891623214739e+00,5.005994762003563858e-01
3.009050989157954881e+00,5.967257637049154795e-01
3.012270813903397570e+00,6.908522951999355177e-01
3.015955833043670431e+00,7.827728954982439147e-01
3.020094595310291119e+00,8.723264713469081055e-01
3.024674956775709855e+00,9.593969124785552971e-01
3.029684302592870804e+00,1.043911616289812994e+00
3.035109758541687075e+00,1.125838938674051493e+00
3.040938387809730248e+00,1.205184889743981191e+00
3.047157370008397592e+00,1.281989381257612415e+00
3.053754160886739566e+00,1.356322300693581617e+00
3.060716632474515198e+00,1.428279643526657594e+00
3.068033194425450194e+00,1.497979887774387953e+00
3.075692898135970133e+00,1.565560749139311536e+00
3.083685525803312899e+00,1.631176415082695730e+00
3.092444019151398216e+00,1.871500334347748318e+00
3.101954364057855962e+00,1.932404648786994805e+00
3.111765941359972309e+00,1.992034713798131795e+00
3.121873009436480828e+00,2.050644094669423545e+00
3.132271121781740941e+00,2.108497616904843941e+00
3.142957189292129527e+00,2.165873928125497283e+00
3.153929558005021505e+00,2.223069145052310347e+00
3.165188108204459727e+00,2.280401796244904578e+00
3.176734382117417876e+00,2.338219380037799056e+00
3.188571749385767706e+00,2.396907012155626848e+00
3.199523177439003607e+00,1.982422808447355411e+00
3.209575573075281962e+00,2.038642327305268509e+00
3.219910933885090643e+00,2.095663279310238547e+00
3.230534124225719950e+00,2.153837191791414085e+00
3.241451907315250569e+00,2.213574524376653585e+00
3.252673280728796801e+00,2.275361907166344455e+00
3.264209913523375306e+00,2.339785964734970580e+00
3.276076725141197965e+00,2.407566850368626721e+00
3.288292666138132425e+00,2.479606491223553810e+00
3.300881793175046042e+00,2.557059809563541730e+00
3.313874785316074600e+00,2.641443100086509066e+00
3.327311144570824553e+00,2.734804978028303246e+00
3.341242500327433085e+00,2.840007872828115065e+00
3.355737782329102359e+00,2.961216472244013520e+00
3.370891749728458286e+00,3.104802353299606299e+00
3.386840018728098034e+00,3.281165462467083849e+00
3.403787982537322510e+00,3.508834518889992093e+00
3.422073798362566421e+00,3.825276314360126939e+00
3.442334128424050288e+00,4.323324897121295862e+00
3.466117227308576076e+00,5.346112941568822663e+00
3.504085302713904948e+00,2.000000000000000000e+01
3.535600971010697702e+00,4.072031015568890133e+00
3.553706630032745117e+00,3.297011070683466549e+00
3.569201692497470990e+00,2.936175121515096631e+00
3.583299440117785117e+00,2.718499951006200899e+00
3.596501129463210766e+00,2.570691932349226771e+00
3.609073031694967515e+00,2.463329512691519341e+00
3.621177344819654476e+00,2.381915895637458647e+00
3.632921757171009514e+00,2.318341676865149470e+00
3.644382153595287832e+00,2.267657892162197264e+00
3.655614400631990168e+00,2.226645726470245279e+00
3.666661032416695054e+00,2.193107198270378255e+00
3.677555306383758271e+00,2.165482553376705255e+00
3.688323795808290395e+00,2.142629919251073822e+00
3.698988118457225749e+00,2.123691554811262261e+00
3.709858872338354097e+00,2.222598358606407754e+00
3.720921975537506032e+00,2.203202644245878972e+00
3.731896049525636805e+00,2.186901301885898263e+00
3.742795375797919988e+00,2.173235256832099171e+00
3.753632174524190290e+00,2.161834929313922959e+00
3.764416996401950932e+00,2.152399144014036647e+00
3.775159024436982147e+00,2.144679825259407480e+00
3.785866309785495876e+00,2.138470687798641023e+00
3.796302577555324298e+00,2.037721830257228195e+00
3.806491126842387551e+00,2.037830608738409932e+00
3.816682145258729175e+00,2.038696733907717107e+00
3.826879237263792533e+00,2.040249024903904473e+00
3.837085675919483574e+00,2.042425830239904094e+00
3.847304446705153591e+00,2.045173546172232015e+00
3.857538284633739600e+00,2.048445407887996783e+00
3.867789705883365237e+00,2.052200496196705082e+00
3.878061034907525517e+00,2.056402915888633665e+00
3.888354427793995871e+00,2.061021111912247239e+00
3.898671892492953983e+00,2.066027297007839714e+00
3.909015306417797042e+00,2.071396970096280210e+00
3.919386431829906314e+00,2.077108509043270601e+00
3.929786929345392199e+00,2.083142824746139432e+00
3.940218369843305535e+00,2.089483066071355477e+00
3.950682245007691495e+00,2.096114367188737670e+00
3.961179976697717375e+00,2.103023630436871017e+00
3.971712925309052622e+00,2.110199339113199013e+00
3.982282397264236717e+00,2.117631395586342613e+00
3.992889651748861457e+00,2.125310980933814875e+00
4.003535906793080912e+00,2.133230432958367118e+00
4.014196271750500422e+00,2.131055681441960115e+00
4.024847823552535786e+00,2.129697064950233365e+00
4.035494525341022154e+00,2.129108362452819314e+00
4.046140120591544154e+00,2.129247841971325439e+00
4.056788154322037876e+00,2.130077777706873121e+00
4.067441992054358302e+00,2.131564032263900454e+00
4.078104836828485347e+00,2.133675693975729093e+00
4.088779744523619364e+00,2.136384761084842765e+00
4.099469637702808811e+00,2.139665865940144851e+00
4.110177318166538640e+00,2.143496033516379740e+00
4.120905478374623954e+00,2.147854469492681329e+00
4.131656711873924692e+00,2.152722373890688434e+00
4.142433522851008298e+00,2.158082776901286248e+00
4.153238334913385010e+00,2.163920394049053009e+00
4.164073499189787420e+00,2.170221498275612504e+00
4.174941301828813067e+00,2.176973806883768514e+00
4.185843970965720473e+00,2.184166381586656325e+00
4.196783683219064365e+00,2.191789540160689498e+00
4.207762569771881012e+00,2.199834778416303038e+00
4.218782722086190873e+00,2.208294701383248348e+00
4.229846197294459209e+00,2.217162962763068013e+00
4.240955023307270366e+00,2.226434211834940058e+00
4.252111203672682471e+00,2.236104047116060034e+00
4.263316722219506083e+00,2.246168976177236321e+00
4.274573547513962346e+00,2.256626381100965251e+00
4.285883637156812753e+00,2.267474489145052452e+00
4.297248941946039125e+00,2.278712348241675567e+00
4.308671409928445328e+00,2.290339807021113838e+00
4.320152990362144507e+00,2.302357499102531957e+00
4.331695637610722294e+00,2.314766831442252926e+00
4.343301314988930351e+00,2.327569976573875987e+00
4.354971998579038939e+00,2.340769868615216520e+00
4.366709681036457624e+00,2.354370202955078817e+00
4.378516375402872640e+00,2.368375439569038399e+00
4.390394118944996649e+00,2.382790809948259980e+00
4.402344977037024876e+00,2.397622327659530317e+00
4.414371047105071888e+00,2.412876802588668212e+00
4.426474462652206121e+00,2.428561858953813157e+00
4.438657397383223291e+00,2.444685957210362748e+00
4.450922069448993490e+00,2.461258420006037451e+00
4.463270745831113828e+00,2.478289462383309161e+00
4.475705746888676728e+00,2.495790226467844430e+00
4.488229451090281152e+00,2.513772820926369000e+00
4.500844299955931049e+00,2.532250365526198088e+00
4.513552803235286071e+00,2.551237041182444099e+00
4.526357544350774198e+00,2.570748145938567042e+00
4.539257246245811395e+00,2.589245437281304962e+00
4.552254783156580942e+00,2.609863806118144502e+00
4.565356845307545264e+00,2.631058822201749248e+00
4.578566366463700632e+00,2.652850939418923915e+00
4.591886386376655693e+00,2.675262115161599841e+00
4.605320058560534946e+00,2.698315915489411854e+00
4.618870658621852421e+00,2.722037631759782084e+00
4.632541593203901797e+00,2.746454410034788740e+00
4.646336409613198271e+00,2.771595394765719700e+00
4.660258806203580129e+00,2.797491888478695454e+00
4.674316640737660400e+00,2.825696786625460533e+00
4.688511441704466876e+00,2.852424471738653544e+00
4.702846946572361908e+00,2.881784227168677326e+00
4.717328189739204980e+00,2.910969459754729982e+00
4.731958218516027159e+00,2.941204810442417106e+00
4.746742422214052404e+00,2.972668689961655897e+00
4.761682731406041036e+00,3.003550826301668586e+00
4.776786949522326964e+00,3.038391152674376094e+00
4.792054565101511621e+00,3.068702117179733513e+00
4.807496041139412313e+00,3.108213067699393761e+00
4.823129364135018804e+00,3.145341460842079773e+00
4.838954251465926504e+00,3.184876527791943079e+00
4.854963889293598456e+00,3.219109704226190249e+00
4.871149898529771427e+00,3.255461776142456465e+00
4.887545115658686434e+00,3.302991652134250611e+00
4.904144281485279144e+00,3.336788762919092655e+00
4.920966068974775176e+00,3.392397861447728147e+00
4.938049503979629939e+00,3.441329234227715972e+00
4.955388170141081794e+00,3.494549066474405219e+00
4.972965770688177578e+00,3.536732486180852675e+00
4.990764045414510797e+00,3.582874848074725449e+00
5.008843179891882436e+00,3.649366605341786141e+00
5.027179789434986112e+00,3.685431721707202790e+00
5.045699115751683728e+00,3.722468261406531642e+00
5.064406246354476338e+00,3.760569656913668624e+00
5.083306755944847488e+00,3.799837540203688580e+00
5.102406750401782709e+00,3.840382972079126933e+00
5.121712917445267799e+00,3.882327890076651578e+00
5.141232585185337101e+00,3.925806823930732214e+00
5.160973790043569487e+00,3.970968940749282083e+00
5.180945355886112935e+00,4.017980499423470242e+00
5.201156986659898784e+00,4.067027816902611725e+00
5.221619375410631925e+00,4.118320880031068221e+00
5.242344333329713280e+00,4.172097778872127627e+00
5.263344943494247197e+00,4.228630195530752367e+00
5.284635745325285683e+00,4.288230263423733035e+00
5.306232957633345571e+00,4.351259226302569338e+00
5.328154750651721727e+00,4.418138490379828198e+00
5.350421580984663805e+00,4.489363902162934572e+00
5.373056608389048527e+00,4.565524439934081968e+00
5.396086220498691688e+00,4.647327045219329378e+00
5.419795931423102786e+00,4.839971101535329723e+00
5.444246433959713194e+00,4.941736291522289548e+00
5.469290101341798938e+00,5.078129588820268658e+00
5.495285871650373188e+00,5.325660711111425805e+00
5.522681823833165637e+00,5.640651388900112195e+00
5.551661264648132033e+00,5.959947846073347932e+00
5.582568707731628166e+00,6.418040556628556104e+00
5.616128802235280659e+00,7.029955747043394432e+00
5.652917832866964254e+00,7.717718572663974541e+00
5.692957660221567018e+00,8.331094089930518365e+00
5.736977075772323076e+00,9.351208392121005630e+00
5.787506582313064030e+00,1.104417346193525518e+01
5.853254691252448794e+00,1.651779646170695059e+01
5.979679458425155580e+00,1.671332737337120733e+01
6.047940543614655162e+00,1.181649588594859424e+01
6.103323470301473819e+00,1.051784964289435464e+01
6.153894508882406633e+00,9.789163939459841757e+00
6.201011966017953903e+00,9.108366935934114395e+00
6.245961972032064935e+00,8.900645332807277654e+00
6.289556409005235160e+00,8.561631545388845410e+00
6.332966715953416426e+00,8.827270312067481584e+00
6.377356057360398012e+00,8.956108404501724962e+00
6.423342159302479537e+00,9.484592806134823917e+00
6.471901488826998339e+00,1.000515996965546606e+01
6.525336447736822088e+00,1.157398671052979111e+01
6.593301051409170555e+00,1.709228477680503744e+01
6.712792484117799496e+00,1.434703562332202154e+01
6.772756475981555724e+00,1.057143396362373977e+01
6.819560256657033470e+00,8.391584560683305938e+00
6.859317811171487200e+00,7.568064983055082351e+00
6.895012830946916971e+00,6.754835085168208408e+00
6.927543326876294927e+00,6.277554050455195878e+00
6.957779872957941869e+00,5.833279136947144394e+00
6.986263860181201935e+00,5.568041371718324584e+00
7.013347078196763285e+00,5.273318036712148604e+00
7.039148313032254300e+00,5.052378787997877652e+00
7.064100933913561420e+00,4.930822231231466013e+00
7.088106287360600000e+00,4.676713291438464815e+00
