Angle (rad),Angular Velocity (rad/s)
3.000254246110151346e+00,1.016620872020183308e-01
3.001015938917987569e+00,2.029153479027664408e-01
3.002282095427228015e+00,3.033867745072032496e-01
3.004047913355367694e+00,4.027231604453809233e-01
3.006306891623214739e+00,5.005994762003563858e-01
3.009050989157954881e+00,5.967257637049154795e-01
3.012270813903397570e+00,6.908522951999355177e-01
3.015955833043670431e+00,7.827728954982439147e-01
3.020094595310291119e+00,8.723264713469081055e-01
3.024674956775709855e+00,9.593969124785552971e-01
3.029684302592870804e+00,1.043911616289812994e+00
3.035109758541687075e+00,1.125838938674051493e+00
3.040938387809730248e+00,1.205184889743981191e+00
3.047157370008397592e+00,1.281989381257612415e+00
3.053754160886739566e+00,1.356322300693581617e+00
3.060716632474515198e+00,1.428279643526657594e+00
3.068636691754003998e+00,1.738577499500548962e+00
3.077493099438309176e+00,1.803651871652852678e+00
3.086670068799195032e+00,1.866841525252542100e+00
3.096158773528570052e+00,1.928386752058874221e+00
3.105951609320411144e+00,1.988536064951462734e+00
3.116042235756358192e+00,2.047546654991950543e+00
3.126425622673862925e+00,2.105685732897013551e+00
3.137098105556490601e+00,2.163232809383936583e+00
3.148057454882783102e+00,2.220483021364873188e+00
3.159302965074603620e+00,2.277751682530843702e+00
3.170835569811514265e+00,2.335380335436826105e+00
3.182657992189750651e+00,2.393744720958423056e+00
3.194774940753165371e+00,2.453265281466907588e+00
3.207193366198778595e+00,2.514421111667866970e+00
3.219922799182200368e+00,2.577768725071486244e+00
3.232975798131554335e+00,2.643967716349807429e+00
3.246368549020602234e+00,2.713816550559494001e+00
3.260121679584398358e+00,2.788303629184939680e+00
3.274261383722244290e+00,2.868682097862973013e+00
3.288821007558137666e+00,2.956582820318992333e+00
3.303843345755160144e+00,3.054191163089020389e+00
3.319384074064344325e+00,3.164535533574041715e+00
3.335517086681613730e+00,3.291982887220933129e+00
3.352343215310666924e+00,3.443144870892858034e+00
3.370005401331199746e+00,3.628672933911673226e+00
3.388717398210407517e+00,3.867211674141681321e+00
3.408824755231749215e+00,4.195494184589430020e+00
3.430959066867071972e+00,4.700647042042367829e+00
3.456565759302457685e+00,5.675269659779007547e+00
3.491982520041595262e+00,1.032833190277782265e+01
3.543673842643380034e+00,6.163849796555766147e+00
3.570332210675525975e+00,4.760638478026764986e+00
3.592429698379646652e+00,4.140960901589294529e+00
3.612142882017577161e+00,3.770798853728016820e+00
3.630330046747964445e+00,3.518241535442145906e+00
3.647435605768797107e+00,3.332641445920234702e+00
3.663726891457741441e+00,3.189634605550540680e+00
3.679380276813820849e+00,3.075789529034515635e+00
3.694519704242426705e+00,2.982986474083324513e+00
3.709236374961179639e+00,2.905977522462952489e+00
3.723599799099670093e+00,2.841194163183600629e+00
3.737664446668444107e+00,2.786110992414412291e+00
3.751473974633330766e+00,2.738882245263678517e+00
3.765064033283496148e+00,2.698122562615417053e+00
3.778464197316107498e+00,2.662768730010160567e+00
3.791699335022896911e+00,2.631989177408712077e+00
3.804790604078721383e+00,2.605122842960075236e+00
3.817756191779092756e+00,2.581636738742128845e+00
3.830611875877870887e+00,2.561095795880866888e+00
3.843371456661402341e+00,2.543140988784239553e+00
3.856047094782799167e+00,2.527473173149474839e+00
3.868649578920252186e+00,2.513840949711170669e+00
3.881188540365269724e+00,2.502031417278094416e+00
3.893672626916365953e+00,2.491863034131833299e+00
3.906109645174442146e+00,2.483180041185108600e+00
3.918506678022385170e+00,2.475848057877436670e+00
3.930870182412685931e+00,2.469750569706042675e+00
3.943206071380291000e+00,2.464786101438148691e+00
3.955519783308456550e+00,2.460865923180107551e+00
3.968061269960289295e+00,2.554674073957297509e+00
3.980822011821079087e+00,2.549802125290613564e+00
3.993561020635735925e+00,2.545968151692995285e+00
4.006283303418207709e+00,2.543100504166807774e+00
4.019122215557962008e+00,2.592010885637311191e+00
4.032199043106446723e+00,2.638299453283770912e+00
4.045501160862053247e+00,2.682158160299024541e+00
4.059016879281444723e+00,2.723769284293711568e+00
4.072735395790465951e+00,2.763305336377874788e+00
4.086646746102828409e+00,2.800929147292238408e+00
4.100741756320394060e+00,2.836794087396361075e+00
4.115011996392732740e+00,2.871044385074133842e+00
4.129449735353698969e+00,2.903815514864664493e+00
4.144047898624140025e+00,2.935234632394276844e+00
4.158800027567724378e+00,2.965421038042403978e+00
4.173700241406970157e+00,2.994486655312592838e+00
4.188743201544968819e+00,3.022536513200209551e+00
4.203924078291777278e+00,3.049669224551021962e+00
4.219238519960041955e+00,3.075977454584002402e+00
4.234682624269827222e+00,3.101548375493182963e+00
4.250252911985766602e+00,3.126464104422889800e+00
4.265827665605136154e+00,3.103881960340669544e+00
4.281408926975867502e+00,3.128537141473354488e+00
4.297112239735073835e+00,3.152713837779003381e+00
4.312965944792195749e+00,3.188565249390831191e+00
4.328966967554283229e+00,3.211792612209990683e+00
4.345083408068440178e+00,3.234742183982749264e+00
4.361314022869836826e+00,3.257471767186499889e+00
4.377657851836116443e+00,3.280036943011165551e+00
4.394114207771709246e+00,3.302491345830307345e+00
4.410682667338369001e+00,3.324886927467166853e+00
4.427363063284445843e+00,3.347274212656943249e+00
4.444155477932532960e+00,3.369702547190420727e+00
4.461060237892773728e+00,3.392220340300455383e+00
4.478077909977104198e+00,3.414875302928470635e+00
4.495209298298090239e+00,3.437714683588749320e+00
4.512455442544823114e+00,3.460785503639329352e+00
4.529817617437656985e+00,3.484134793874954283e+00
4.547297333373438555e+00,3.507809834485087208e+00
4.564896338283483956e+00,3.531858400574098056e+00
4.582616620737983482e+00,3.556329015627599066e+00
4.600460414342987470e+00,3.581271215535549057e+00
4.618430203489849895e+00,3.606735826057405170e+00
4.636528730532224252e+00,3.632775256947051279e+00
4.654759004482782458e+00,3.659443816357212498e+00
4.673124311341094739e+00,3.686798049628966290e+00
4.691628226186057127e+00,3.714897107159413903e+00
4.710274627191447294e+00,3.743803146751443656e+00
4.729067711752280800e+00,3.773581776711072422e+00
4.748012014943514991e+00,3.804302547004259960e+00
4.767112430572269410e+00,3.836039497059453129e+00
4.786374235131438226e+00,3.868871770359119999e+00
4.805803115017890370e+00,3.902884307872817704e+00
4.825413696384573292e+00,3.941684572814585508e+00
4.845213212082283505e+00,3.978359605226752027e+00
4.865199763502412011e+00,4.016517600734546001e+00
4.885381054973046311e+00,4.056276095890540390e+00
4.905765405678465640e+00,4.097763744329013136e+00
4.926361809160349381e+00,4.141121924697522161e+00
4.947184893245196946e+00,4.188500928722108441e+00
4.968245463539617823e+00,4.236109730145834362e+00
4.989549981600814199e+00,4.286113916125888323e+00
5.011110952268849061e+00,4.338728719946079337e+00
5.032991758809476579e+00,4.414431606462877689e+00
5.055294984802278790e+00,4.507992671785976846e+00
5.078050028344450517e+00,4.595051987612607469e+00
5.101256336173626060e+00,4.688613838635051323e+00
5.124948249627827579e+00,4.789429896455962954e+00
5.149164194007538775e+00,4.898386821631679489e+00
5.173947431533379770e+00,5.016538921728939115e+00
5.199284134111947786e+00,5.119525700999234985e+00
5.225212038109035895e+00,5.253645272641913166e+00
5.251857037708829168e+00,5.406806295244978244e+00
5.279225931023488805e+00,5.542927418820210228e+00
5.307397987522170624e+00,5.729257888879654814e+00
5.336555356570038988e+00,5.937732002528195885e+00
5.366819945050772311e+00,6.173039449619458274e+00
5.398340760006611561e+00,6.441427078116412908e+00
5.431303405657241790e+00,6.751442993225870381e+00
5.465944407835767294e+00,7.115172863556011862e+00
5.502573795583166394e+00,7.550410577825581449e+00
5.541612722632693888e+00,8.084742606401764675e+00
5.583524285253133712e+00,8.706350989412433350e+00
5.629177581991561929e+00,9.602427250063247044e+00
5.680193765498806613e+00,1.089301597094451068e+01
5.739463517642001911e+00,1.302730952308354517e+01
5.814680470938146328e+00,1.796742604918440733e+01
5.968502233647953403e+00,2.000000000000000000e+01
6.045723357803634457e+00,1.312380987329826354e+01
6.107093693200392970e+00,1.165721853805561636e+01
6.163683703433538774e+00,1.106782459967996424e+01
6.218438745201050999e+00,1.088716887285558421e+01
6.273023911316226275e+00,1.099096378774873983e+01
6.328802938889821483e+00,1.137031093964248285e+01
6.387320447415835822e+00,1.211109105593919644e+01
6.450953416114890260e+00,1.349400083879572243e+01
6.524960668399401698e+00,1.662418826052229548e+01
6.650865067532272690e+00,2.000000000000000000e+01
6.684604245870083616e+00,3.843144273467615335e+00
6.698614723985127917e+00,1.970400192262511840e+00
6.705321904810127798e+00,7.642676683488536238e-01
6.706521468324266877e+00,-2.769509525357267687e-01
6.702462656895405324e+00,-1.373876178046730345e+00
6.692218316824331659e+00,-2.827279270865654226e+00
6.671711928721711260e+00,-6.033268147321251718e+00
6.618923121187746617e+00,-6.604951140475106897e+00
6.595031220989066689e+00,-3.676219671589799454e+00
6.580572068685370368e+00,-2.219770794923720647e+00
6.572181114787374767e+00,-1.174745718233469516e+00
6.568589230391880029e+00,-2.747996301315471790e-01
6.569385270843936198e+00,5.958276012899372809e-01
6.574652767577436663e+00,1.531012175527411978e+00
6.585035321683323950e+00,2.676640480354543605e+00
6.602411979481344062e+00,4.458653690597412123e+00
6.636004367663942638e+00,1.222137597255848362e+01
6.688825957521343568e+00,5.455491571660751049e+00
6.710893269822935103e+00,3.640954995033038877e+00
6.725894859841491602e+00,2.447910471306767644e+00
6.735931129096663028e+00,1.602563895820010131e+00
6.742169430041480283e+00,9.096128509007096463e-01
6.745141262362405854e+00,2.860420819944631265e-01
6.745062424065588758e+00,-3.177476438138772119e-01
6.741927602237278272e+00,-9.435084379332256965e-01
6.735508208647988937e+00,-1.641773752252219554e+00
6.725250938724406602e+00,-2.498590320772953177e+00
6.709935542152710042e+00,-3.720637219678434526e+00
6.686198262449427610e+00,-6.170288135372224758e+00
6.626982848741840293e+00,-1.027847675170791497e+01
6.592205931400803465e+00,-5.219395270466852921e+00
6.570747553389919560e+00,-3.540271843913251004e+00
6.555822879678508741e+00,-2.487397143527492638e+00
6.545486203754153465e+00,-1.673370971294803500e+00
6.538903748396792004e+00,-9.724698677359346899e-01
6.535673307549860311e+00,-3.252083251541881825e-01
