Angle (rad),Angular Velocity (rad/s)
3.000423801480182728e+00,1.694349247712331752e-01
3.001692726359103780e+00,3.378975506404335860e-01
3.003799681838373203e+00,5.045057992234351918e-01
3.006733351732337578e+00,6.684582348368922622e-01
3.010478680915248617e+00,8.290652127703731500e-01
3.015017493962145245e+00,9.857711806799821508e-01
3.019026668905678612e+00,6.188364078464064777e-01
3.022508150154437523e+00,7.732569974372509591e-01
3.026753866137563698e+00,9.244578377548515746e-01
3.031746730420581848e+00,1.072063903763060599e+00
3.037468085549424490e+00,1.215822285194052554e+00
3.043898316065524412e+00,1.355602276346379087e+00
3.051017449807526205e+00,1.491390836413243992e+00
3.058805728025069559e+00,1.623284910600196085e+00
3.067244132438502913e+00,1.751482135229114112e+00
3.076314864758559420e+00,1.876271337251241622e+00
3.086001780779004111e+00,1.998024050582790423e+00
3.096290786765318881e+00,2.117188074180611057e+00
3.107170210576219560e+00,2.234283943630732683e+00
3.118631164103246256e+00,2.349905121334327163e+00
3.130667917720363125e+00,2.464722766398884879e+00
3.143278312211321701e+00,2.579496164854969020e+00
3.156464240044122072e+00,2.695090344436215535e+00
3.170232237245224738e+00,2.812503169952508042e+00
3.184594241554875360e+00,2.932905503158207861e+00
3.199568595378240676e+00,3.057700162487638540e+00
3.215181409073108121e+00,3.188609092682404000e+00
3.231468461818173932e+00,3.327804648496567541e+00
3.248477923626528430e+00,3.478112874694175627e+00
3.266274372971828210e+00,3.643339911094437333e+00
3.284944945034763641e+00,3.828820583672558175e+00
3.304609170157077891e+00,4.042394575085168640e+00
3.325435635546058588e+00,4.296273809288486234e+00
3.347672375406874234e+00,4.610968823250294335e+00
3.371708207244538347e+00,5.024683130374571149e+00
3.398216164690012864e+00,5.620484608475393884e+00
3.428579446604224756e+00,6.634031416685827409e+00
3.466974488223931505e+00,9.324850323637958738e+00
3.537951547577498967e+00,9.564877511466866267e+00
3.575743773067982634e+00,6.427215227444259327e+00
3.604733284616244759e+00,5.302553989749166696e+00
3.629559643828432769e+00,4.676971240423949183e+00
3.651846131002981721e+00,4.262123667238184588e+00
3.672367759235473539e+00,3.960935758457182043e+00
3.691571233025828569e+00,3.729816503912025460e+00
3.709743816110267378e+00,3.545728391656413070e+00
3.727084075428165999e+00,3.395132768397285172e+00
3.743736518084167741e+00,3.269452522853402154e+00
3.759810454005274583e+00,3.162940066500079528e+00
3.775391099756871149e+00,3.071572230541084192e+00
3.790546516859780724e+00,2.992432940124444052e+00
3.805332157283622507e+00,2.923347363816226174e+00
3.819793958176846083e+00,2.862654440328426197e+00
3.833970517289803315e+00,2.809059706411860979e+00
3.847894663997625919e+00,2.761536833101190691e+00
3.861594620353656637e+00,2.719259835047519225e+00
3.875094876496782526e+00,2.681555226668009606e+00
3.888416862343174962e+00,2.647867516804330634e+00
3.901579470994029908e+00,2.617733843697460649e+00
3.914599472239893796e+00,2.590765010294797666e+00
3.927491843286577744e+00,2.566631088369967006e+00
3.940270036227106143e+00,2.545050340804893008e+00
3.952946196546418545e+00,2.525780591517591045e+00
3.965531343269503850e+00,2.508612426540961504e+00
3.978035518740604015e+00,2.493363782746189639e+00
3.990467914121084814e+00,2.479875600551659343e+00
4.002836975298189159e+00,2.468008301303108443e+00
4.015384944263450606e+00,2.550348503055153149e+00
4.028332383707097009e+00,2.627842891814439419e+00
4.041655763314247807e+00,2.700771363877159548e+00
4.055332954540494583e+00,2.769414032704011319e+00
4.069343222005107563e+00,2.834047504611217239e+00
4.083667198452078040e+00,2.894942009831193097e+00
4.098286847250761866e+00,2.952359267265092679e+00
4.113185415809781809e+00,3.006550966263849656e+00
4.128347382716264669e+00,3.057757757980618329e+00
4.143758400903193362e+00,3.106208660276794209e+00
4.159405238698132834e+00,3.152120792432310026e+00
4.175275720218392550e+00,3.195699368058979140e+00
4.191358666248656384e+00,3.237137886046061563e+00
4.207643836462681364e+00,3.276618469743500128e+00
4.224121873625121815e+00,3.314312313758274176e+00
4.240784250226771412e+00,3.350380205674965861e+00
4.257623217860430742e+00,3.384973096763286726e+00
4.274631759529485819e+00,3.418232701398717488e+00
4.291803544992061070e+00,3.450292109615710423e+00
4.309132889175604220e+00,3.481276401061294212e+00
4.326614713646317334e+00,3.511303251742115883e+00
4.344244511081027049e+00,3.540483527476862236e+00
4.362018312664360131e+00,3.568921859974601318e+00
4.379932658317352789e+00,3.596717203058390044e+00
4.397984569654783904e+00,3.623963367810396186e+00
4.416171525564865696e+00,3.650749536403159023e+00
4.434491440305795784e+00,3.677160755154761151e+00
4.452942644017915619e+00,3.703278407951492213e+00
4.471523865557193389e+00,3.729180671659399149e+00
4.490234217564841757e+00,3.754942955528924209e+00
4.509073183698718346e+00,3.780638326912301839e+00
4.528040607964436859e+00,3.806337925885057594e+00
4.547136686097714708e+00,3.832111371611089279e+00
4.566361958964269441e+00,3.858027163533386705e+00
4.585717307959634503e+00,3.884153080725927243e+00
4.605203952408597701e+00,3.910556583022410937e+00
4.624823448982861684e+00,3.937305217860036066e+00
4.644577693176120015e+00,3.964467037158136087e+00
4.664468922898460157e+00,3.992111029010469103e+00
4.684499724277250365e+00,4.020307569527293623e+00
4.704673039779981636e+00,4.049128900843837364e+00
4.724992178806648013e+00,4.078649642145392384e+00
4.745460830935947172e+00,4.108947341582984691e+00
4.766083082052024800e+00,4.140103078213573262e+00
4.786863433627874365e+00,4.172202124653342281e+00
4.807806825499604919e+00,4.205334683056340062e+00
4.828918662534596784e+00,4.239596709419011233e+00
4.850204845678738330e+00,4.275090844188182970e+00
4.871671807966781564e+00,4.311927470877364499e+00
4.893326556199664168e+00,4.350225929086709797e+00
4.915176719138862005e+00,4.390115914257532559e+00
4.937230603247621197e+00,4.431739104049651878e+00
4.959497257231552325e+00,4.475251060916602519e+00
4.981986546908874658e+00,4.520823472960151967e+00
5.004709242289872684e+00,4.568646811418667575e+00
5.027718762413625697e+00,4.635892981383223699e+00
5.051075847938530039e+00,4.707746741813843450e+00
5.074804698645936085e+00,4.784684303904534808e+00
5.098932078945541235e+00,4.867257694581269334e+00
5.123487735786986796e+00,4.956110932178726003e+00
5.148504908094025723e+00,5.052000675565245125e+00
5.174020953731256256e+00,5.155822893263270146e+00
5.200153670176161924e+00,5.299456214993984560e+00
5.226956907390578166e+00,5.423706255666786546e+00
5.254410828480545526e+00,5.560026242081288927e+00
5.282580571217487808e+00,5.710403640581476203e+00
5.311542408317825092e+00,5.877329499349116304e+00
5.341386684055145828e+00,6.063977044039149611e+00
5.372221839729490078e+00,6.274465153575449428e+00
5.404180071692364251e+00,6.514259327838348490e+00
5.437425521829465147e+00,6.790804656295698294e+00
5.472166558673752235e+00,7.114569783972543249e+00
5.508674997774516413e+00,7.500863265902436794e+00
5.547317829494715191e+00,7.973211915488889190e+00
5.588613300334555944e+00,8.570208682506279985e+00
5.633339517929827345e+00,9.361093798484469986e+00
5.682773762268522155e+00,1.048757616219982758e+01
5.739336753303336813e+00,1.230964339471690394e+01
5.809112191544537396e+00,1.625479032885582242e+01
5.951480269492708253e+00,2.000000000000000000e+01
6.024009547467747083e+00,1.196811121406972234e+01
6.079257390461835442e+00,1.038272319510168451e+01
6.129253584663408638e+00,9.701666358526781053e+00
6.176883961525875044e+00,9.395735309990641326e+00
6.223580470108377227e+00,9.314396008138754013e+00
6.270317892775640445e+00,9.408473450194808407e+00
6.317952260273560938e+00,9.676077390713487603e+00
6.367431334658782305e+00,1.015740887867424291e+01
6.420060511677987414e+00,1.096464697853851611e+01
6.478107806694416659e+00,1.241069622963283869e+01
6.547123385670760243e+00,1.579939429378869420e+01
6.673294955599303080e+00,2.000000000000000000e+01
6.738223021353691777e+00,9.867391692656312330e+00
6.781083597732392221e+00,7.581332770835446766e+00
6.815695317207694615e+00,6.361236505845728750e+00
6.845362473593907815e+00,5.552077475377238613e+00
6.871565126545345237e+00,4.955532918879097970e+00
6.895129104110818474e+00,4.487003987322749410e+00
6.916575242860964146e+00,4.103090629988016325e+00
6.936258837473504357e+00,3.778769966610727504e+00
6.954435903445571832e+00,3.498394231305066437e+00
6.971298534202725605e+00,3.251573366994580550e+00
6.986995410499488024e+00,3.031081933176173138e+00
7.001644474700298382e+00,2.831706852062040980e+00
7.015515670700086304e+00,2.718254067071911084e+00
7.028840724456016709e+00,2.613036109538946494e+00
7.041657818436995342e+00,2.514897244168011081e+00
7.053999918938561819e+00,2.422897082093455445e+00
7.065895722320998829e+00,2.336261044755237215e+00
7.077370388984979499e+00,2.254344165918848120e+00
7.088446120901366498e+00,2.176604167403278112e+00
7.099142621879272141e+00,2.102581113422079984e+00
7.109477468610212014e+00,2.031881816253193307e+00
7.119466412896720442e+00,1.964167729396659290e+00
7.129123630151338986e+00,1.899145438242384243e+00
7.138461925474532954e+00,1.836559111255180232e+00
7.147492905897165016e+00,1.776184448949360339e+00
7.156227125382212506e+00,1.717823789929809220e+00
7.164674207705593822e+00,1.661302119972275948e+00
7.172842951230325781e+00,1.606463792568823212e+00
7.180741418750101523e+00,1.553169814924344028e+00
7.188377014936564890e+00,1.501295587016284516e+00
7.195756553428329205e+00,1.450729006418079337e+00
7.202886315212744250e+00,1.401368870494624996e+00
7.209772099647044463e+00,1.353123521962509734e+00
7.216419269224243926e+00,1.305909694847432911e+00
7.222832788996583098e+00,1.259651526414059530e+00
7.229017261414533380e+00,1.214279707305526035e+00
7.234976957214149351e+00,1.169730747362974332e+00
7.240715842883664877e+00,1.125946338734570062e+00
7.246237605156808925e+00,1.082872801178443201e+00
7.251545672911701601e+00,1.040460597103115559e+00
7.256643236797381213e+00,9.986639060150666047e-01
7.261533266862841174e+00,9.574402497652843014e-01
7.266218528424031042e+00,9.167501613889509349e-01
7.270701596371203834e+00,8.765568914799037881e-01
7.274984868091144641e+00,8.368261469848662371e-01
