Angle (rad),Angular Velocity (rad/s)
3.000423801480182728e+00,1.694349247712331752e-01
3.001692726359103780e+00,3.378975506404335860e-01
3.003799681838373203e+00,5.045057992234351918e-01
3.006733351732337578e+00,6.684582348368922622e-01
3.010478680915248617e+00,8.290652127703731500e-01
3.015017493962145245e+00,9.857711806799821508e-01
3.020491851512603354e+00,1.202952604794679026e+00
3.026875708638390172e+00,1.349788492825070740e+00
3.033981708772837571e+00,1.491812324422154834e+00
3.041785939346747458e+00,1.629104682084222766e+00
3.050265200503886831e+00,1.761867519262895421e+00
3.059397573734525810e+00,1.890408932254808549e+00
3.069162916593634716e+00,2.015129072527811704e+00
3.079543292634876472e+00,2.136508507894903541e+00
3.090523351353496206e+00,2.255100004199390273e+00
3.102090677177523403e+00,2.371524476682516092e+00
3.113071469388085877e+00,2.021457250302106878e+00
3.123470060947912685e+00,2.137773271142023646e+00
3.134447604885821193e+00,2.253133754782908671e+00
3.146000829343286842e+00,2.368155946486838026e+00
3.158129784272577290e+00,2.483553934416333320e+00
3.170838371253589028e+00,2.600158269574373904e+00
3.184134994551536924e+00,2.718945379519421390e+00
3.198033391804630199e+00,2.841080847360374584e+00
3.212553728579952583e+00,2.967983036657495521e+00
3.227724082877512668e+00,3.101417706311965894e+00
3.243582515660474286e+00,3.243641713307826357e+00
3.260180045090668610e+00,3.397627843927857327e+00
3.277585063058489290e+00,3.567430306065883627e+00
3.295890156170214080e+00,3.758808164714539046e+00
3.315223161004352548e+00,3.980355039272667206e+00
3.335766213783264877e+00,4.245710788705698846e+00
3.357791331195700835e+00,4.578357489128854318e+00
3.381734697859367422e+00,5.023607364249237150e+00
3.408379711631657649e+00,5.685725613036469284e+00
3.439454513024730709e+00,6.895302032812278270e+00
3.481494889599663356e+00,1.136182485960001642e+01
3.548075758975476113e+00,7.770233715198084923e+00
3.583664335854409355e+00,6.681595436913659647e+00
3.613973593928126338e+00,5.567987354569988057e+00
3.640105806380651732e+00,4.933001655463000290e+00
3.663644264002502204e+00,4.506938174356956317e+00
3.685481686319208361e+00,4.240414763762629491e+00
3.706046482042604673e+00,3.995345270580048513e+00
3.725517115355485132e+00,3.799769006689854844e+00
3.744102762845423094e+00,3.639511312655070885e+00
3.761955927594361704e+00,3.505568064631104264e+00
3.779192127239316967e+00,3.391893548553940541e+00
3.795901517526770075e+00,3.294249532940288105e+00
3.812156171720937348e+00,3.209560484815599857e+00
3.828014858033467860e+00,3.135530568908233562e+00
3.843526296932041841e+00,3.070405067431482227e+00
3.858731453545012791e+00,3.012815784824371512e+00
3.873665194788761923e+00,2.961677484824833506e+00
3.888357515068752157e+00,2.916116511780380005e+00
3.902834461081380546e+00,2.875420367998742677e+00
3.917118841837460064e+00,2.839001319790115385e+00
3.931230782233734455e+00,2.806369625913837762e+00
3.945188160593500193e+00,2.777113509540051872e+00
3.959006958765884043e+00,2.750883947536746810e+00
3.972701545376703613e+00,2.727382960685900581e+00
3.986284907308802250e+00,2.706354487868031011e+00
3.999768840616345411e+00,2.687577194397872571e+00
4.013085288147139273e+00,2.639713380176806456e+00
4.026474454601429720e+00,2.715159258043049473e+00
4.040229198720981074e+00,2.785995790067354871e+00
4.054327239493296986e+00,2.852528263769816608e+00
4.068747804808455548e+00,2.915054472676822162e+00
4.083471587489972521e+00,2.973862251865203365e+00
4.098480690911920910e+00,3.029227753417147895e+00
4.113758567560686252e+00,3.081414327680503273e+00
4.129289953266405355e+00,3.130671891390763850e+00
4.145060799274471464e+00,3.177236679760580884e+00
4.161058203852619819e+00,3.221331295348530244e+00
4.177270344730244389e+00,3.263164981131363884e+00
4.193686413337200491e+00,3.302934058323086397e+00
4.210296551541429011e+00,3.340822480951508577e+00
4.227091791369983476e+00,3.377002469017947206e+00
4.244063998028469342e+00,3.411635190324043165e+00
4.261205816401965940e+00,3.444871467899045303e+00
4.278510621119702151e+00,3.476852495571727708e+00
4.295972470190233317e+00,3.507710548777055681e+00
4.313586062158772272e+00,3.537569681334307603e+00
4.331346696699623244e+00,3.566546401831015345e+00
4.349250238530513180e+00,3.594750325531211210e+00
4.367293084520296631e+00,3.622284799508055375e+00
4.385472133853171250e+00,3.649247500085099905e+00
4.403784761111001700e+00,3.675731002732987474e+00
4.422228792138123588e+00,3.701823325382622709e+00
4.440802482559448983e+00,3.727608446736687675e+00
4.459504498831816655e+00,3.753166801636125705e+00
4.478333901719804722e+00,3.778575755905388522e+00
4.497290132100063786e+00,3.803910063391647167e+00
4.516318184193507612e+00,3.807710316396158312e+00
4.535420656924105565e+00,3.833292442576784698e+00
4.554651302772832366e+00,3.858991029520868032e+00
4.574010875349404870e+00,3.884874476707218527e+00
4.593500468757273580e+00,3.911010650168085689e+00
4.613121515950349583e+00,3.937467292952992803e+00
4.632875789158894086e+00,3.964312443073138681e+00
4.652765402433457709e+00,3.991614863590328799e+00
4.672792816380271219e+00,4.019444490018985405e+00
4.692960845188834718e+00,4.047872900827522713e+00
4.713272666083224927e+00,4.076973817583880333e+00
4.733731831363590992e+00,4.106823642222995119e+00
4.754342283244496592e+00,4.137502040063425923e+00
4.775108371743309377e+00,4.169092578618958100e+00
4.796034875926304508e+00,4.201683434005929030e+00
4.817127028884391926e+00,4.235368178924064253e+00
4.838416771276667916e+00,4.281088673086754781e+00
4.859912275481538479e+00,4.317341747745910396e+00
4.881605932633267919e+00,4.360508642591240935e+00
4.903540574926225304e+00,4.413947733345546354e+00
4.925712438135881222e+00,4.455098091299010576e+00
4.948094693016736656e+00,4.498131280875761639e+00
4.970697170665498099e+00,4.543216914156584352e+00
4.993530595059841204e+00,4.590543002158179675e+00
5.016606682556007613e+00,4.640319048514134792e+00
5.039945534265224403e+00,4.695742929057284520e+00
5.063569580060785391e+00,4.754449093537344240e+00
5.087487385869030376e+00,4.813244685794382249e+00
5.111717468723993463e+00,4.879488861512937703e+00
5.136289662833902980e+00,4.950168398132952063e+00
5.161227395675437535e+00,5.025796591695104176e+00
5.186556870752887072e+00,5.106973534656298774e+00
5.212307550379086329e+00,5.194406516854368050e+00
5.238512755175279700e+00,5.288936635599235103e+00
5.265210416909750890e+00,5.391573999096466174e+00
5.292444035847754691e+00,5.503545035659702656e+00
5.320429202529115109e+00,5.693989020700861658e+00
5.349240972734150112e+00,5.833121417095779471e+00
5.378786687822912249e+00,5.988040766632034995e+00
5.409153065764692236e+00,6.162005719076166343e+00
5.440445589184502495e+00,6.359327377613371191e+00
5.472794896735430292e+00,6.585859373080207746e+00
5.506366334910725691e+00,6.849802887028381804e+00
5.541374846720662717e+00,7.163100261307063121e+00
5.578109424084070511e+00,7.544010389804836514e+00
5.616976040315829977e+00,8.022284104252698000e+00
5.658580018854168614e+00,8.650796813924793938e+00
5.703905001617429527e+00,9.536193176091609658e+00
5.754783387077882395e+00,1.094229783876160944e+01
5.815641722311871042e+00,1.384773600454377274e+01
5.940125437701375688e+00,2.000000000000000000e+01
6.008351896130118774e+00,1.113049188580028392e+01
6.059563104650357523e+00,9.610841400376482824e+00
6.105847224119432148e+00,8.984289283549484750e+00
6.149971605109411321e+00,8.706414792704913808e+00
6.193238082874761297e+00,8.627295145899637419e+00
6.236486447314890214e+00,8.694516592402930399e+00
6.280405064710302909e+00,8.895684258751261453e+00
6.325690034109016757e+00,9.245953519444958246e+00
6.373192120889491719e+00,9.794759218523937605e+00
6.424156469637502198e+00,1.066026286127152289e+01
6.480818824727889726e+00,1.216121649987220010e+01
6.548745428421258730e+00,1.562054387914738918e+01
6.676682846846789587e+00,2.000000000000000000e+01
6.743134000486569413e+00,1.017919836653057786e+01
6.787342521218106661e+00,7.814590803972283339e+00
6.822984584151594589e+00,6.543307424786314108e+00
6.853768241929681260e+00,5.811415482588555115e+00
6.881157636315530013e+00,5.173046700188143276e+00
6.906167399601571333e+00,4.842282728309085016e+00
6.929286566749469856e+00,4.418736083955902672e+00
6.950467591673825218e+00,4.063246548680798043e+00
6.970001651643915608e+00,3.757529124838657530e+00
6.988105615582383301e+00,3.489571570514825360e+00
7.004946367783891681e+00,3.251090502534634830e+00
7.020912732812795376e+00,3.137098336790799191e+00
7.036332474555694105e+00,3.032191821338887205e+00
7.051247546916611597e+00,2.935031495048307182e+00
7.065693894030167677e+00,2.844540458919052828e+00
7.079702595713605717e+00,2.759841026978479217e+00
7.093300743708157441e+00,2.680209221673791387e+00
7.106512122697851375e+00,2.605041439198020559e+00
7.119150481317334744e+00,2.451930992251437846e+00
7.131245304060662704e+00,2.386513284854416383e+00
7.143020499698193859e+00,2.324028396664590712e+00
7.154489991515926128e+00,2.264186848154613685e+00
7.165666352142155304e+00,2.206736721061187012e+00
7.176560975508590623e+00,2.151457543740293854e+00
7.187184221322740818e+00,2.098155359896868966e+00
7.197545537279934180e+00,2.046658718011142852e+00
7.207653563101933614e+00,1.996815384055510734e+00
7.217516219626856966e+00,1.948489627531049484e+00
7.227140785516843913e+00,1.901559965739573421e+00
7.236533963642483691e+00,1.855917277150265221e+00
7.245701938808321252e+00,1.811463214211859185e+00
7.254650428174161725e+00,1.768108860747379607e+00
7.263384725482088911e+00,1.725773590385797363e+00
7.271909740004174338e+00,1.684384091220355817e+00
7.280230030969473631e+00,1.643873528679246521e+00
7.288349838102686995e+00,1.604180823920691390e+00
7.296273108804347984e+00,1.565250029268397292e+00
7.304003522418637040e+00,1.527029785543291496e+00
7.311544511966125093e+00,1.489472848817561479e+00
