Angle (rad),Angular Velocity (rad/s)
3.000254246110151346e+00,1.016620872020183308e-01
3.001015938917987569e+00,2.029153479027664408e-01
3.002282095427228015e+00,3.033867745072032496e-01
3.004047913355367694e+00,4.027231604453809233e-01
3.006306891623214739e+00,5.005994762003563858e-01
3.009050989157954881e+00,5.967257637049154795e-01
3.012270813903397570e+00,6.908522951999355177e-01
3.015955833043670431e+00,7.827728954982439147e-01
3.020094595310291119e+00,8.723264713469081055e-01
3.024674956775709855e+00,9.593969124785552971e-01
3.029684302592870804e+00,1.043911616289812994e+00
3.035109758541687075e+00,1.125838938674051493e+00
3.040938387809730248e+00,1.205184889743981191e+00
3.047157370008397592e+00,1.281989381257612415e+00
3.053754160886739566e+00,1.356322300693581617e+00
3.060716632474515198e+00,1.428279643526657594e+00
3.067731338371973759e+00,1.377597632989354892e+00
3.074792026817801727e+00,1.446341571489262234e+00
3.082191493513889213e+00,1.513129718228544141e+00
3.089920284580977672e+00,1.578094702290350426e+00
3.097969646779842989e+00,1.641383873592729747e+00
3.106331597368050090e+00,1.703157886910192875e+00
3.114998988156226112e+00,1.763589804455375054e+00
3.123965566457638676e+00,1.822864757492723253e+00
3.133226035835238399e+00,1.881180212054727852e+00
3.142776119805287482e+00,1.938746897227808574e+00
3.152612632003237714e+00,1.995790478003729662e+00
3.162733556811683666e+00,2.052554090721526059e+00
3.173138145163641788e+00,2.109301911641289884e+00
3.183827031264501173e+00,2.166324004695507011e+00
3.194802377461763321e+00,2.223942803421891767e+00
3.206068056639263641e+00,2.282521741369019974e+00
3.217629884636688420e+00,2.342476782402809210e+00
3.229495919789587166e+00,2.404291963037976654e+00
3.241676853544340542e+00,2.468540620903870941e+00
3.254186526540638891e+00,2.535914882651196578e+00
3.267042620808904729e+00,2.607267466463598637e+00
3.280267604741589071e+00,2.683672378655048263e+00
3.293890050466786068e+00,2.766515548874704855e+00
3.307946516923609970e+00,2.857634695991678964e+00
3.322484323889353774e+00,2.959543741947454176e+00
3.337565791149667227e+00,3.075810156126751682e+00
3.353275017111974066e+00,3.211726980745433391e+00
3.369729356924761277e+00,3.375599425855249525e+00
3.387100361944885840e+00,3.581451234657618166e+00
3.405656047761907779e+00,3.855498033634991550e+00
3.425859683738489370e+00,4.254837487060134649e+00
3.448662383160895573e+00,4.941162207578067900e+00
3.476917417822213974e+00,6.764495482730168874e+00
3.532450812110366822e+00,8.402035738996085357e+00
3.565819850813018110e+00,5.713563629076603867e+00
3.591795534176181359e+00,4.789956186298876872e+00
3.614381707608706140e+00,4.285224559552232471e+00
3.634931456263773342e+00,3.954820479785345011e+00
3.654082953407991496e+00,3.717528768832060404e+00
3.672200820246837250e+00,3.537201687180332232e+00
3.689517876830666232e+00,3.394864052533544285e+00
3.706194078177165174e+00,3.279426761742854968e+00
3.722345202022801836e+00,3.183898641081651881e+00
3.738058396390099958e+00,3.103615272040188611e+00
3.753401293887976387e+00,3.035324778306196070e+00
3.768427685876118094e+00,2.976679005052062621e+00
3.783181227387687695e+00,2.925932959483620532e+00
3.797697951855601772e+00,2.881758488607513602e+00
3.812008033807122054e+00,2.843124060658480001e+00
3.826137058442024674e+00,2.809214538428563390e+00
3.840106957550991851e+00,2.779376075864852247e+00
3.853936713495440980e+00,2.753077315627306287e+00
3.867642898137368945e+00,2.729881464118071310e+00
3.881240091880657328e+00,2.709425805514813934e+00
3.894741214032495957e+00,2.691406414975930250e+00
3.908157786500463082e+00,2.675566576545332254e+00
3.921500146644016027e+00,2.661687887025637522e+00
3.934777620836042544e+00,2.649583337903342439e+00
3.947998667302960119e+00,2.639091874778055402e+00
3.961170994683679503e+00,2.630074074749963131e+00
3.974301661208489378e+00,2.622408679763952311e+00
3.987397158270118425e+00,2.615989792460970964e+00
4.000463481320923442e+00,2.610724589965535358e+00
4.013715973181214203e+00,2.689428533692048706e+00
4.027349600868115331e+00,2.763232911153256310e+00
4.041340673019947261e+00,2.832459498040027945e+00
4.055667091879727515e+00,2.897423376873552225e+00
4.070308311896099873e+00,2.958429922473537310e+00
4.085245285495842538e+00,3.015772658115831284e+00
4.100460399987924553e+00,3.069731827444638572e+00
4.115937408823989507e+00,3.120573543503950553e+00
4.131661359791643839e+00,3.168549394237551553e+00
4.147618522158915688e+00,3.213896401806311864e+00
4.163796314318006786e+00,3.256837250043524534e+00
4.180183233087220174e+00,3.297580709733582083e+00
4.196768785512906774e+00,3.336322204898616750e+00
4.213543423759013251e+00,3.373244474865014997e+00
4.230498483470646498e+00,3.408518296651956714e+00
4.247626125841981626e+00,3.442303240318852708e+00
4.264919283498885605e+00,3.474748436550882502e+00
4.282269991237557250e+00,3.465854030168350253e+00
4.299677010665937438e+00,3.496779156224805618e+00
4.317236136699412974e+00,3.526716378663865115e+00
4.334942719490489260e+00,3.555780401323228368e+00
4.352792665760214064e+00,3.584079250038030295e+00
4.370782406921362551e+00,3.611714873757233768e+00
4.388908870144178742e+00,3.638783720367775754e+00
4.407169452237773122e+00,3.665377287201692091e+00
4.425561996222251437e+00,3.691582647007752627e+00
4.444084770472172430e+00,3.717482950790078178e+00
4.462736450320202941e+00,3.743157909396206851e+00
4.481516102020226988e+00,3.768684256112836195e+00
4.500423168981228628e+00,3.794136192829513643e+00
4.519457460196727894e+00,3.819585822584435242e+00
4.538619140809192487e+00,3.845103571533985853e+00
4.557908724764604180e+00,3.870758603607688197e+00
4.577327069529236070e+00,3.896619231339878198e+00
4.596875372858781894e+00,3.922753326624782044e+00
4.616555171629418197e+00,3.949228735438597315e+00
4.636368342761477024e+00,3.976113700927134342e+00
4.656317106289434626e+00,4.003477299688577240e+00
4.676404030657331568e+00,4.031389896608378542e+00
4.696632040347107129e+00,4.059923624251257301e+00
4.717004425979270721e+00,4.089152893612699735e+00
4.737524857061713668e+00,4.119154944014890241e+00
4.758197397604314816e+00,4.150010441144099005e+00
4.779026524865599868e+00,4.181804133724306816e+00
4.800017151554643924e+00,4.214625581176711044e+00
4.821174651878715522e+00,4.248569966918564589e+00
4.842504891907332798e+00,4.283739014826239533e+00
4.864014264819688904e+00,4.320242029981481657e+00
4.885709731718836046e+00,4.358197089339860497e+00
4.907598868837895090e+00,4.397732413676203933e+00
4.929689922138239311e+00,4.438987959428486896e+00
4.951991870513533733e+00,4.482117278378927594e+00
4.974514499084404129e+00,4.527289705096795736e+00
4.997268484402893840e+00,4.574692947677807986e+00
5.020265493813803381e+00,4.624536177736579212e+00
5.043555194727253443e+00,4.692077008762660206e+00
5.067193960889062154e+00,4.764238205940236170e+00
5.091206090628609182e+00,4.841510331707775450e+00
5.115618526631548590e+00,4.924463106217079833e+00
5.140461293116611152e+00,5.013762660128930904e+00
5.165768030854374970e+00,5.110193658027073482e+00
5.191576658435274716e+00,5.214688014685252782e+00
5.217930198544960874e+00,5.328362673188016707e+00
5.244877822990854810e+00,5.452570051811366447e+00
5.272476192357558489e+00,5.588966540545214023e+00
5.300791199597648884e+00,5.739607265227211208e+00
5.329900278634246646e+00,5.907080006710418552e+00
5.359895521535664287e+00,6.094699102054116580e+00
5.390887983579188969e+00,6.306794166829837067e+00
5.423013787493441207e+00,6.549154295134849590e+00
5.456443052305575137e+00,6.829738423361248145e+00
5.491393451020075922e+00,7.159865480426812034e+00
5.528151760795565473e+00,7.556325687628776322e+00
5.567110143567714609e+00,8.045405689117991699e+00
5.608831953169460149e+00,8.671317732541012901e+00
5.654183796304534937e+00,9.516267788100741143e+00
5.704642338486420883e+00,1.075812847002703521e+01
5.763197640133925326e+00,1.289700480727883480e+01
5.838705263603888085e+00,1.855295351991468777e+01
5.997128286088358351e+00,2.000000000000000000e+01
6.081246311529788784e+00,1.512060959855909559e+01
6.150831629483701768e+00,1.298974134176827988e+01
6.212818288565070013e+00,1.191257127411612515e+01
6.270751184154579327e+00,1.132185278586387689e+01
6.326557070391646498e+00,1.104710728734544567e+01
6.381679670823040773e+00,1.104971945816600254e+01
6.437607145140925802e+00,1.138939406848790803e+01
6.496329560417382076e+00,1.223536228271899517e+01
6.562830628469130012e+00,1.493056312260000063e+01
6.675177413603562648e+00,1.771188261574434009e+01
6.738959930048531888e+00,1.044085778042087220e+01
6.785967044298812034e+00,8.611857397183539931e+00
6.826439457818415768e+00,7.656797067847141314e+00
6.863075104735972154e+00,7.034897224285252548e+00
6.897068560850727614e+00,6.583703193434850220e+00
6.929080467250109621e+00,6.234517109370480981e+00
6.959524717839519425e+00,5.952385314514455850e+00
6.988682337083433005e+00,5.717302813146543095e+00
7.016755221178224033e+00,5.516840540695327810e+00
7.043615572406888070e+00,5.234493714643016382e+00
7.069163363907639663e+00,4.990189035846575472e+00
7.093566996628536181e+00,4.775680279949985341e+00
7.116959878978443399e+00,4.585049122420957524e+00
7.139449928409881352e+00,4.413916885556567138e+00
7.161125967897894462e+00,4.258961219675375887e+00
7.182062179971505422e+00,4.117607021172774218e+00
7.202321297411369727e+00,3.987821676049291497e+00
7.221956944881112506e+00,3.867975279401354882e+00
7.241015393662173061e+00,3.756742708943227704e+00
7.259536900726278219e+00,3.653033455259400153e+00
7.277556747093315792e+00,3.555940334145306636e+00
7.295106054515029470e+00,3.464701335280860661e+00
7.312212436001990667e+00,3.378670793868553179e+00
7.328900519934575364e+00,3.297297297881447431e+00
7.345192376692589953e+00,3.220106540335323952e+00
7.361107869195762987e+00,3.146687855103052378e+00
7.376664943392220231e+00,3.076683533061712161e+00
7.391879870870672775e+00,3.009780262290420172e+00
7.406767452948053609e+00,2.945702208991785032e+00
7.421341193492161814e+00,2.884205378755893889e+00
7.435613446170266094e+00,2.825072986378080575e+00
7.449626500092969117e+00,2.780371133320412635e+00
7.463389734754188432e+00,2.725245107387878285e+00
7.476882047941845855e+00,2.671977661589549857e+00
7.490112371698123717e+00,2.620426863475631141e+00
7.503088963035714265e+00,2.570464337011461708e+00
7.515819467496424267e+00,2.521973616907857263e+00
7.528310975098460034e+00,2.474848742333053409e+00
7.540570069765315075e+00,2.428993049835758811e+00
7.552567175273353861e+00,2.370169870523182176e+00
