Angle (rad),Angular Velocity (rad/s)
3.000254246110151346e+00,1.016620872020183308e-01
3.001015938917987569e+00,2.029153479027664408e-01
3.002282095427228015e+00,3.033867745072032496e-01
3.004047913355367694e+00,4.027231604453809233e-01
3.006306891623214739e+00,5.005994762003563858e-01
3.009050989157954881e+00,5.967257637049154795e-01
3.012270813903397570e+00,6.908522951999355177e-01
3.015955833043670431e+00,7.827728954982439147e-01
3.020094595310291119e+00,8.723264713469081055e-01
3.024674956775709855e+00,9.593969124785552971e-01
3.029684302592870804e+00,1.043911616289812994e+00
3.035109758541687075e+00,1.125838938674051493e+00
3.040938387809730248e+00,1.205184889743981191e+00
3.047157370008397592e+00,1.281989381257612415e+00
3.053754160886739566e+00,1.356322300693581617e+00
3.060716632474515198e+00,1.428279643526657594e+00
3.068033194425450194e+00,1.497979887774387953e+00
3.075692898135970133e+00,1.565560749139311536e+00
3.083685525803312899e+00,1.631176415082695730e+00
3.092001666995325415e+00,1.694995324339952480e+00
3.100632785576522110e+00,1.757198535874978651e+00
3.109571280018778250e+00,1.817978718405930172e+00
3.118810540268572407e+00,1.877539788375956142e+00
3.128345004493843007e+00,1.936097230571930838e+00
3.138170219240978831e+00,1.993879151893843238e+00
3.148282906848519858e+00,2.051128146208121450e+00
3.158681044449858533e+00,2.108104089173549855e+00
3.169363959629891703e+00,2.165088040666636626e+00
3.180332448885410113e+00,2.222387516054241896e+00
3.191588926626988343e+00,2.280343507611962917e+00
3.203137614776426556e+00,2.339339812591242573e+00
3.214984786404481820e+00,2.399815485465763842e+00
3.227139081864634385e+00,2.462281629901515334e+00
3.239611923393584725e+00,2.527344368421327037e+00
3.252418065637572298e+00,2.595736828302474652e+00
3.265576337543535157e+00,2.668364640327339998e+00
3.279110659988455190e+00,2.746372289777021969e+00
3.293051471628396065e+00,2.831242725079636369e+00
3.306543420456503402e+00,2.562169693101036039e+00
3.319567225020315870e+00,2.648759637164301850e+00
3.333047142102238070e+00,2.745054909203936688e+00
3.347039177854461478e+00,2.854241142479154725e+00
3.361618740472180011e+00,2.981022988119889305e+00
3.376890701912720338e+00,3.132735532691965918e+00
3.393007581796514405e+00,3.321655029946120941e+00
3.410205780926319097e+00,3.570435888162697413e+00
3.428888640164116985e+00,3.927419454293018308e+00
3.449864347477171300e+00,4.524363653493815640e+00
3.475405285392526800e+00,5.980263673008664682e+00
3.522544602569662064e+00,7.175595009980729522e+00
3.549853814175188305e+00,4.572151037601600798e+00
3.570591706683499567e+00,3.821913473929998251e+00
3.588632775271278330e+00,3.428101298379325979e+00
3.605103466690443792e+00,3.176352094179482499e+00
3.620518135526512360e+00,2.998794015722634043e+00
3.635165244616309188e+00,2.865966871295228202e+00
3.649226658062199480e+00,2.762651525696618648e+00
3.662826116688222555e+00,2.680054612883834952e+00
3.676052476127647850e+00,2.612680270064834609e+00
3.688972161308531561e+00,2.556887174586907285e+00
3.701636404900720656e+00,2.510151383644346090e+00
3.714085722502662001e+00,2.470659404366140510e+00
3.726352817907399917e+00,2.437069431449041534e+00
3.738464545410729922e+00,2.408364167754632579e+00
3.750443279440975441e+00,2.383756319876920937e+00
3.762307897325792183e+00,2.362625796657694455e+00
3.774074501333897658e+00,2.344476734180884314e+00
3.785756960115853609e+00,2.328907333958977421e+00
3.797367322032558778e+00,2.315588221031949612e+00
3.808916135691069016e+00,2.304246610240642035e+00
3.820412702021039664e+00,2.294654520171847345e+00
3.831865275009731064e+00,2.286619863695857457e+00
3.843281223364093169e+00,2.279979619024000037e+00
3.854667162041129469e+00,2.274594529501038132e+00
3.866029060262012873e+00,2.270344942894254370e+00
3.877372330972222336e+00,2.267127511193832934e+00
3.888701905516753321e+00,2.264852548037048052e+00
3.900022296426135959e+00,2.263441894235193708e+00
3.911337650561582446e+00,2.262827179857376247e+00
3.922651794381985191e+00,2.262948398713335862e+00
3.933968272727246696e+00,2.263752731076312585e+00
3.945290382230399295e+00,2.265193565258794894e+00
3.956621200252910420e+00,2.267229679681901366e+00
3.967963610067530400e+00,2.269824555394258869e+00
3.979320322879341010e+00,2.272945795324291307e+00
3.990693897169756532e+00,2.276564631407690165e+00
4.002086755763728299e+00,2.280655504491604813e+00
4.013527364277358345e+00,2.295551435150005037e+00
4.025041928600798791e+00,2.310242399656175394e+00
4.036629491077653675e+00,2.324754994500225269e+00
4.048289223071040333e+00,2.339114257674845376e+00
4.060020417559107919e+00,2.353343821499553901e+00
4.071822482460294879e+00,2.367466051944101313e+00
4.083694934624479522e+00,2.381502175891258677e+00
4.095637394433027545e+00,2.395472397634933692e+00
4.107649580956865165e+00,2.409396005779826044e+00
4.119731307627269246e+00,2.423291471592654567e+00
4.131882478379035106e+00,2.437176539751304993e+00
4.144103084230178702e+00,2.451068312346013744e+00
4.156393200266400356e+00,2.464983326904903294e+00
4.168752983002211643e+00,2.478937629143874499e+00
4.181182668093957666e+00,2.492946841077147813e+00
4.193682568383016118e+00,2.507026225068832215e+00
4.206253072250218494e+00,2.521190744357050040e+00
4.218894642265107464e+00,2.535455120539729545e+00
4.231607814115972310e+00,2.549833888474592580e+00
4.244393195808802588e+00,2.564341449014661212e+00
4.257251467125340305e+00,2.578992119974298891e+00
4.270206672610718179e+00,2.603030241887899443e+00
4.283258865431419871e+00,2.617877932669181451e+00
4.296385774223540288e+00,2.632918999367796165e+00
4.309588401518081646e+00,2.648167727660715620e+00
4.322867821690287826e+00,2.663638577418149023e+00
4.336225181948737628e+00,2.679346230039680865e+00
4.349661703562673232e+00,2.695305636466551746e+00
4.363178683331769392e+00,2.711532066202871682e+00
4.376777495304242649e+00,2.728041157687772333e+00
4.390459592750936224e+00,2.744848970373791275e+00
4.404226510404831707e+00,2.761972038884362490e+00
4.418079866977370429e+00,2.779427429645487724e+00
4.432021367964982694e+00,2.797232800413898435e+00
4.446052808761447039e+00,2.815406463156789219e+00
4.460176078094046481e+00,2.833967450777139963e+00
4.474393161804075092e+00,2.852935588224495778e+00
4.488706146995089519e+00,2.872331568584754358e+00
4.503117226575411358e+00,2.892177034805104352e+00
4.517628704224839531e+00,2.912494667783061431e+00
4.532267766407742648e+00,2.943068343229190642e+00
4.547036075576491143e+00,2.964345554458161391e+00
4.561912146647331134e+00,2.986177632462716058e+00
4.576898823157690366e+00,3.008592518695841100e+00
4.591999092368858726e+00,3.031619784912479076e+00
4.607216093783921274e+00,3.055290782091570900e+00
4.622553128447101756e+00,3.079638804387875961e+00
4.638013669104510406e+00,3.104699270094550823e+00
4.653601371316904434e+00,3.130509921891585723e+00
4.669320085627285621e+00,3.157111049001263936e+00
4.685173870900259274e+00,3.184545734280142426e+00
4.701167008966401717e+00,3.212860129760341632e+00
4.717304020723837255e+00,3.242103764726814052e+00
4.733589683871323395e+00,3.272329891101035670e+00
4.750029052472965141e+00,3.303595871719271049e+00
4.766627478585023781e+00,3.335963618075130643e+00
4.783390636210967273e+00,3.369500085279170332e+00
4.800324547893158211e+00,3.404277833420103594e+00
4.817435614299710345e+00,3.440375666252862619e+00
4.834730647224781741e+00,3.477879360264665820e+00
4.852216906492153647e+00,3.516882499779464766e+00
4.869902141337997037e+00,3.557487436980004691e+00
4.887794636952735416e+00,3.599806399719242211e+00
4.905899316985824044e+00,3.642352553515265434e+00
4.924225516955666571e+00,3.688468020418931737e+00
4.942758616459631327e+00,3.724939238784675588e+00
4.961508321919990472e+00,3.775335936648907431e+00
4.980504558445178809e+00,3.823509834717949474e+00
4.999759576553829632e+00,3.878957432280144335e+00
5.019305698064909116e+00,3.940033677369090714e+00
5.039143642484104291e+00,3.995601136906888229e+00
5.059266489079288220e+00,4.054037416331904176e+00
5.079689252111238673e+00,4.115616188810234277e+00
5.100428403179675385e+00,4.180647726284062671e+00
5.121502070460461908e+00,4.249485628208596211e+00
5.142930275367860737e+00,4.322535128698915763e+00
5.164735215627739073e+00,4.400263442332440711e+00
5.186941606432556640e+00,4.483212771676600816e+00
5.209577095008719461e+00,4.572016831223264965e+00
5.232672768984687472e+00,4.667422077107137746e+00
5.256263786044686803e+00,4.770315324065308893e+00
5.280390162476684246e+00,4.881760168437464742e+00
5.305097772933616618e+00,5.003045764295207753e+00
5.330439635542522758e+00,5.135753267081753393e+00
5.356477589596029709e+00,5.281848100570355697e+00
5.383284524588178854e+00,5.443810907743099392e+00
5.410947401944136814e+00,5.624828100990884039e+00
5.439571447656663672e+00,5.829077255620975784e+00
5.469286129784832973e+00,6.062169236565552843e+00
5.500253959557058536e+00,6.331861152618857957e+00
5.532683963500629076e+00,6.649263049400071957e+00
5.566853313038729212e+00,7.031005988078320001e+00
5.603144213814513108e+00,7.503443649335834742e+00
5.642111980107324953e+00,8.111646176076989789e+00
5.684625001011609946e+00,8.941488728351322024e+00
5.732202200157443528e+00,1.018627180735580318e+01
5.788074640071457999e+00,1.243297668237170939e+01
5.863338378970265552e+00,1.971888587267707393e+01
6.003040748750620992e+00,1.831627295389214183e+01
6.082341045402796631e+00,1.441295823243381236e+01
6.150246820758898281e+00,1.296271654766665904e+01
6.213803759585037945e+00,1.255018713994554957e+01
6.276497161315455209e+00,1.259449458462075278e+01
6.340433886909748296e+00,1.305552342410274314e+01
6.407986991497732099e+00,1.408938505931918783e+01
6.483248512561497812e+00,1.633357395508448917e+01
6.579211784446355793e+00,2.000000000000000000e+01
6.730595900725305114e+00,2.000000000000000000e+01
6.811934278886719873e+00,1.420449976338418807e+01
6.875815551115675994e+00,1.164019802502079060e+01
6.929883206935393503e+00,1.010340373794268132e+01
6.978265841746555509e+00,9.293879374890359202e+00
7.022718503608977869e+00,8.522978648407857349e+00
7.064160300943489901e+00,8.070371134142963143e+00
7.103561835940815250e+00,7.702015685514798982e+00
7.141281587285388532e+00,7.394600685699094456e+00
7.177584044105014272e+00,7.133061529100846343e+00
7.212671423213843802e+00,6.907151689971121833e+00
7.246722890637904868e+00,6.717454525647322150e+00
7.279864248981790631e+00,6.542580787553374577e+00
7.312131351580303473e+00,6.367647969536529118e+00
7.343631251239508551e+00,6.234610854188220586e+00
7.374390706822175900e+00,6.072099733285222456e+00
7.404453003415198076e+00,5.954695460050954736e+00
7.433966343492980577e+00,5.852182791470043277e+00
7.462948671296423697e+00,5.742439341270264563e+00
7.491369720689345257e+00,5.627771867783446957e+00
7.519218155817036120e+00,5.513391835736049629e+00
7.546581043374668951e+00,5.432867533667089077e+00
7.573543684746428362e+00,5.353298047418148187e+00
7.600161243662013177e+00,5.294418248875250477e+00
7.626478162291694396e+00,5.233127488154374340e+00
