Angle (rad),Angular Velocity (rad/s)
3.000423801480182728e+00,1.694349247712331752e-01
3.001692726359103780e+00,3.378975506404335860e-01
3.003799681838373203e+00,5.045057992234351918e-01
3.006733351732337578e+00,6.684582348368922622e-01
3.010478680915248617e+00,8.290652127703731500e-01
3.015017493962145245e+00,9.857711806799821508e-01
3.020329201442115252e+00,1.138167427553493649e+00
3.026391546910764507e+00,1.285995787737894913e+00
3.033181352671039388e+00,1.429144743349867852e+00
3.040675231145395951e+00,1.567639925636580056e+00
3.048850239305669785e+00,1.701631198577025605e+00
3.057684464342837583e+00,1.831378395637231593e+00
3.067157538430325570e+00,1.957237487036008305e+00
3.077251088424791448e+00,2.079648593444511917e+00
3.087949132558608589e+00,2.199126924443197240e+00
3.099238440898739011e+00,2.316257470179628797e+00
3.111108880125552645e+00,2.431694153319117646e+00
3.123553766739502802e+00,2.546164184493437066e+00
3.136570256995630412e+00,2.660478589865045596e+00
3.150159807761341302e+00,2.775550347144501551e+00
3.164328751525958161e+00,2.892422376018034758e+00
3.179089043091241518e+00,3.012308968313358815e+00
3.194459258480247588e+00,3.136656466053330927e+00
3.210465964240145187e+00,3.267232777710642466e+00
3.227145638326141874e+00,3.406261996461990460e+00
3.244547432605852766e+00,3.556632690792348672e+00
3.262737262805682104e+00,3.722232338095687876e+00
3.281804082024367020e+00,3.908509712832620941e+00
3.301869939323394565e+00,4.123476682302350760e+00
3.323107046634298012e+00,4.379627720948993996e+00
3.345768974616666114e+00,4.697985163612309556e+00
3.370253788471894385e+00,5.117809938430580630e+00
3.397252281267096219e+00,5.724830957772150342e+00
3.428191224070093135e+00,6.764199985203837251e+00
3.467439830193964845e+00,9.579449152731449146e+00
3.542550033540713184e+00,1.043529654241640259e+01
3.584075779347071222e+00,7.100202837738903483e+00
3.616144048493664442e+00,5.871930665948532635e+00
3.643653689836780174e+00,5.185329264591021392e+00
3.668372186263801016e+00,4.728878762045952477e+00
3.691147183923259689e+00,4.396917471932707322e+00
3.712468342308372193e+00,4.141823324563715936e+00
3.732650952723457927e+00,3.938374123617522038e+00
3.751913133321620020e+00,3.771727122893861583e+00
3.770413708935169694e+00,3.632470647639929773e+00
3.788272871135053954e+00,3.514294170945727380e+00
3.805584353322075231e+00,3.412778838996131103e+00
3.822423044499894562e+00,3.324721089411244446e+00
3.838849980245387261e+00,3.247731458871995436e+00
3.854915742258504086e+00,3.179984968882561436e+00
3.870662848868558381e+00,3.120059543834547089e+00
3.886127481828669517e+00,3.066827861635017083e+00
3.901340762741158930e+00,3.019382870312649736e+00
3.916329715596704730e+00,2.976985207340496764e+00
3.931118005407301386e+00,2.939025270716029592e+00
3.945726513831076421e+00,2.904995333313068695e+00
3.960173793966281774e+00,2.874468691622607430e+00
3.974476434129697644e+00,2.847083836985720318e+00
3.988649352084534083e+00,2.822532275130767765e+00
4.002706035427169518e+00,2.800549037294080446e+00
4.016736702256399560e+00,2.811693283675110067e+00
4.030822757087053176e+00,2.822710706099444522e+00
4.044963659996851923e+00,2.833638433792294631e+00
4.059159048832920114e+00,2.844510517253199477e+00
4.073408724849486795e+00,2.855358331473140332e+00
4.087712640229311134e+00,2.866210927629265548e+00
4.102070887251355380e+00,2.877095341080612823e+00
4.116483688903104898e+00,2.888036862233279933e+00
4.130951390766107068e+00,2.899059275810033753e+00
4.145474454028780009e+00,2.910185073206144057e+00
4.160053449502132850e+00,2.921435641907271119e+00
4.174689052532396971e+00,2.932831435359900762e+00
4.189382038720286694e+00,2.944392126198689841e+00
4.204133280370067283e+00,2.956136745330828486e+00
4.218943743603262853e+00,2.968083809041139887e+00
4.233814486081911355e+00,2.980251436001734699e+00
4.248746655295118302e+00,2.992657455837413050e+00
4.263741487370397820e+00,3.005319510705141806e+00
4.278709324127983216e+00,2.982254666511393815e+00
4.293654998482345775e+00,2.996058797866415269e+00
4.308670365166099359e+00,3.010134766508030246e+00
4.323756830952216745e+00,3.024501622628342545e+00
4.338915898172589714e+00,3.039178554417745648e+00
4.354149165629252138e+00,3.054184976387867234e+00
4.369458329945393515e+00,3.069540617108589942e+00
4.384845187355349339e+00,3.085265607197674065e+00
4.400311635936892785e+00,3.101380568391279624e+00
4.415859678293311497e+00,3.117906704526671291e+00
4.431491424696940129e+00,3.134865895284582482e+00
4.447209096710120768e+00,3.152280793568389861e+00
4.463015031304062852e+00,3.170174927441013590e+00
4.478911685500802875e+00,3.188572807599280079e+00
4.494901641568564976e+00,3.207500041440690897e+00
4.510987612806304448e+00,3.226983454870886892e+00
4.527172449959241618e+00,3.247051223113848639e+00
4.543459148313837126e+00,3.267733011923819486e+00
4.559850855528050140e+00,3.289060130761604306e+00
4.576350880261004228e+00,3.311065699692546271e+00
4.592962701675531889e+00,3.333784831994413445e+00
4.609689979897690471e+00,3.357254834737089855e+00
4.626536567529409893e+00,3.381515429920287641e+00
4.643506522324332586e+00,3.406608999140201988e+00
4.660604121152836399e+00,3.432580855213091642e+00
4.677833875400724928e+00,3.459479544727955158e+00
4.695200547967472993e+00,3.487357186150065402e+00
4.712709172054942997e+00,3.516269848874874260e+00
4.730365071966715185e+00,3.546277979566049066e+00
4.748174389025667352e+00,3.577673085268809228e+00
4.766143227716718833e+00,3.610073874002883265e+00
4.784277308113949800e+00,3.643783095535738870e+00
4.802583378090729660e+00,3.678884218930074557e+00
4.821068621344890559e+00,3.715468248771920390e+00
4.839740697338813291e+00,3.753634651785318965e+00
4.858607786216229130e+00,3.793492424907828564e+00
4.877678639467275978e+00,3.835161331396907958e+00
4.896962637260443785e+00,3.878773337463992110e+00
4.916469853540481161e+00,3.924474289410767813e+00
4.936211130214013920e+00,3.972425880739541615e+00
4.956198162021061115e+00,4.022807970857803284e+00
4.976443594036234153e+00,4.075821332652981077e+00
4.996961134178347308e+00,4.131690926551587317e+00
5.017765683658837794e+00,4.190669825323754871e+00
5.038888055956432410e+00,4.258966360604525825e+00
5.060362549503087948e+00,4.331586092153821177e+00
5.082211845730217448e+00,4.408965351089277007e+00
5.104460969709911033e+00,4.491607297820170430e+00
5.127137657320020026e+00,4.580095656157710415e+00
5.150272799773520482e+00,4.675112094641511895e+00
5.173900986602533614e+00,4.777458463495626972e+00
5.198061175373577036e+00,4.888085584738219858e+00
5.222797526593655704e+00,5.008131020201099126e+00
5.248160456953089970e+00,5.138969345508527020e+00
5.274207985650095409e+00,5.282280169722588958e+00
5.301007481008198852e+00,5.440141862914599002e+00
5.328637964606922850e+00,5.615163407467360202e+00
5.357193209340953999e+00,5.810674308836185631e+00
5.386785997260036041e+00,6.031005667575772833e+00
5.417554122437356234e+00,6.281919550104049677e+00
5.449669112111130254e+00,6.571289870196957317e+00
5.483349360825205743e+00,6.910231575443019914e+00
5.518880797388850290e+00,7.315078748891908234e+00
5.556651236250432113e+00,7.811096055029979723e+00
5.597211649271352840e+00,8.440089271704605878e+00
5.641396319613224186e+00,9.278002962109454188e+00
5.690592582170502567e+00,1.048331485450384370e+01
5.747490133611295349e+00,1.247299421959988841e+01
5.819223648923101067e+00,1.705745839130453945e+01
5.965950251349322997e+00,2.000000000000000000e+01
6.042826442594777525e+00,1.299902195851786324e+01
6.102097148305094976e+00,1.098782705854468844e+01
6.154302752160177192e+00,9.992049683646110125e+00
6.202706628382482101e+00,9.419790557623155536e+00
6.248900039649665672e+00,9.090321510155947138e+00
6.293896249281137223e+00,8.934124322697790888e+00
6.338491126509877560e+00,8.928839389585528252e+00
6.383450902546307759e+00,9.084562778589958754e+00
6.429686370134142237e+00,9.452636414899666661e+00
6.478554564130396543e+00,1.017502776809230447e+01
6.532731909436686912e+00,1.171555825214637636e+01
6.601331367832141694e+00,1.744986024718403428e+01
6.726541214127593982e+00,1.618566911236399264e+01
6.793622802362459190e+00,1.158687326731921807e+01
6.846443307521276722e+00,9.735709624588363198e+00
6.892188024312918770e+00,8.640109322408408232e+00
6.933402918551006877e+00,7.886536209503587358e+00
6.971367773949089575e+00,7.323931583735688200e+00
7.006840884232762079e+00,6.881504408806915940e+00
7.040481558855015365e+00,6.583718851189209076e+00
7.072755264833650912e+00,6.332439541927842974e+00
7.103864486229035435e+00,6.116393425769429903e+00
7.133964908985108266e+00,5.927845184725705430e+00
7.163179492119528646e+00,5.761276825149673542e+00
7.191607485618231266e+00,5.612625967583236175e+00
7.219330459507125042e+00,5.478822650078633671e+00
7.246416477551267832e+00,5.357495186227877682e+00
7.272923072143443690e+00,5.246776477269601280e+00
7.298899418035477815e+00,5.145172477057427862e+00
7.324387955004538320e+00,5.051470461527322264e+00
7.349425621907681894e+00,4.964673560957921339e+00
7.374044810649333925e+00,4.883953076769054213e+00
7.398274114362241249e+00,4.808613120577576616e+00
7.422138921786715748e+00,4.738063966220458667e+00
7.445661894928813140e+00,4.671801675585636637e+00
7.468863356908507889e+00,4.609392316305819470e+00
7.491761609835204894e+00,4.550459590254011033e+00
7.514373197541443616e+00,4.494675029735080152e+00
7.536713124405896913e+00,4.441750150428795507e+00
7.558795038871036986e+00,4.391430112259247842e+00
7.580631388320088426e+00,4.343488554285324099e+00
7.602233550525967054e+00,4.297723352298781663e+00
7.623611945786423760e+00,4.253953107933585720e+00
7.644776133019828279e+00,4.212014222364889093e+00
7.665734892447818360e+00,4.171758440640622290e+00
7.686496296986124577e+00,4.133050777481580340e+00
7.707067774068226740e+00,4.095767754209615141e+00
7.727456159312435346e+00,4.059795890881166436e+00
7.747667743192374168e+00,4.025030408837396934e+00
7.767708311669458077e+00,3.991374107546545424e+00
7.787583181582986569e+00,3.958736386405192320e+00
7.807297231460738729e+00,3.927032387523715862e+00
7.826854928304104675e+00,3.896182239776076806e+00
