Angle (rad),Angular Velocity (rad/s)
3.000423801480182728e+00,1.694349247712331752e-01
3.001692726359103780e+00,3.378975506404335860e-01
3.003799681838373203e+00,5.045057992234351918e-01
3.006733351732337578e+00,6.684582348368922622e-01
3.010478680915248617e+00,8.290652127703731500e-01
3.015017493962145245e+00,9.857711806799821508e-01
3.020329201442115252e+00,1.138167427553493649e+00
3.026391546910764507e+00,1.285995787737894913e+00
3.033181352671039388e+00,1.429144743349867852e+00
3.040675231145395951e+00,1.567639925636580056e+00
3.048850239305669785e+00,1.701631198577025605e+00
3.057684464342837583e+00,1.831378395637231593e+00
3.067157538430325570e+00,1.957237487036008305e+00
3.077251088424791448e+00,2.079648593444511917e+00
3.087949132558608589e+00,2.199126924443197240e+00
3.098504357353924377e+00,2.023387065590037892e+00
3.108915916960666603e+00,2.140936194718185082e+00
3.119911174864058889e+00,2.256961225629171786e+00
3.131483999107594673e+00,2.372071034429747538e+00
3.143631512517864213e+00,2.486960560155732747e+00
3.156354557205817368e+00,2.602425676738829630e+00
3.169658253260735137e+00,2.719386407045737197e+00
3.183552700491252718e+00,2.838921561368964230e+00
3.198053891528106263e+00,2.962319653967956601e+00
3.213184935707941392e+00,3.091153955126767716e+00
3.228977744314961651e+00,3.227394784377065395e+00
3.245475414685724758e+00,3.373581686642867616e+00
3.262735704288354466e+00,3.533096304227063111e+00
3.280836270506478414e+00,3.710613402988498510e+00
3.299882910694275751e+00,3.912886630224442275e+00
3.320023215812350603e+00,4.150211324713935390e+00
3.341470772873876172e+00,4.439391414805108127e+00
3.364552126539261945e+00,4.810490967467484502e+00
3.389810354548601801e+00,5.324939683109480626e+00
3.418283639240883964e+00,6.138433637031240231e+00
3.452587083925018785e+00,7.862423357243756072e+00
3.518175568701122025e+00,1.741580387804066632e+01
3.568801103401340935e+00,7.605878820438533694e+00
3.602283389640628108e+00,6.019317170139887097e+00
3.630214115674598840e+00,5.223240479633732392e+00
3.654987383212652929e+00,4.718499800952101531e+00
3.677640712642890719e+00,4.361059455085777081e+00
3.698742202447615757e+00,4.091039091367425939e+00
3.718645793328343441e+00,3.878234619480139145e+00
3.737590899930946620e+00,3.705447645268619805e+00
3.755749024097351896e+00,3.562029565318843627e+00
3.773248340134745860e+00,3.440968275437618740e+00
3.790695087698734866e+00,3.535149399172768270e+00
3.808110007418628928e+00,3.433301063121823926e+00
3.825050510944667082e+00,3.344926799897112613e+00
3.841577722687522289e+00,3.267639350403138465e+00
3.857742319893300298e+00,3.199614379947479659e+00
3.873586917371809601e+00,3.139429631237450558e+00
3.889147791267712151e+00,3.085957177211254177e+00
3.904456153983120181e+00,3.038289161568709762e+00
3.919539116063945450e+00,2.995685343646601773e+00
3.934420424656054571e+00,2.957535239522425474e+00
3.949121039216490381e+00,2.923330274525711925e+00
3.963659586534338697e+00,2.892642951670757689e+00
3.978052724805219764e+00,2.865111031851086398e+00
3.992315438183173804e+00,2.840425356146646152e+00
4.006461277495634299e+00,2.818320356215616940e+00
4.020605200715673178e+00,2.839099648106848228e+00
4.034850867155079790e+00,2.859034534990221310e+00
4.049194300611977937e+00,2.878221871162457202e+00
4.063631987841378468e+00,2.896750143559223112e+00
4.078160839010581462e+00,2.914700372005864182e+00
4.092778152415139203e+00,2.932146914925199521e+00
4.107481583008054216e+00,2.949158190529753032e+00
4.122269114343029450e+00,2.965797322716910323e+00
4.137139033576608504e+00,2.982122720061767485e+00
4.152089909214003782e+00,2.998188595499367892e+00
4.167120571319439470e+00,3.014045433527303697e+00
4.182230093944212079e+00,3.029740411053438720e+00
4.197417779554640127e+00,3.045317777367549272e+00
4.212683145267992479e+00,3.060819198131534247e+00
4.228025910727621905e+00,3.076284067759311291e+00
4.243445987469200986e+00,3.091749794091851467e+00
4.258943469648426294e+00,3.107252058861305510e+00
4.274518626017112410e+00,3.122825057076761279e+00
4.290171893049445906e+00,3.138501718148711372e+00
4.305903869133562267e+00,3.154313911295774986e+00
4.321715309755712831e+00,3.170292637541892056e+00
4.337607123615323523e+00,3.186468210411705915e+00
4.353580369619347579e+00,3.202870427263214914e+00
4.369636254713646473e+00,3.219528733057437364e+00
4.385776132517851700e+00,3.236472378252688742e+00
4.402001502738356109e+00,3.253730572424450518e+00
4.418314011341935910e+00,3.271332635149463819e+00
4.434715451480083281e+00,3.289308145653816240e+00
4.451207765161578678e+00,3.307687092709107990e+00
4.467793045678272179e+00,3.326500026268380150e+00
4.484473540796552804e+00,3.345778212365068338e+00
4.501251656734749140e+00,3.365553792855001003e+00
4.518129962954791523e+00,3.385859951665216805e+00
4.535111197805060002e+00,3.406731089326693773e+00
4.552198275060577615e+00,3.428203007714277106e+00
4.569394291416767118e+00,3.450313107100507537e+00
4.586702535004065773e+00,3.473100597856098481e+00
4.604126495003033170e+00,3.496606729405356884e+00
4.621669872453419536e+00,3.520875039378364324e+00
4.639336592366359646e+00,3.545951626303836868e+00
4.657130817266748934e+00,3.571885449670412438e+00
4.675056962313392184e+00,3.598728661766010362e+00
4.693119712168280167e+00,3.626536976405276391e+00
4.711324039813927556e+00,3.655370080499436458e+00
4.729675227549961392e+00,3.685292095443097882e+00
4.748176917639548300e+00,3.715478845167415223e+00
4.766834559688339468e+00,3.747789794609602598e+00
4.785657002723194609e+00,3.781413258126842702e+00
4.804651025592248104e+00,3.816436975631678497e+00
4.823823865028034064e+00,3.852956515810460836e+00
4.843183257227213545e+00,3.891076273924895634e+00
4.862737484792490683e+00,3.930910623350171829e+00
4.882495429877103277e+00,3.972585250419491842e+00
4.902455107093471653e+00,4.011528528586197240e+00
4.922626180492200909e+00,4.057268521003565276e+00
4.943031614815413199e+00,4.105302660359150480e+00
4.963683343941908355e+00,4.155819646304281356e+00
4.984594299496393432e+00,4.209030420411910001e+00
5.005778530719247499e+00,4.265171738354641029e+00
5.027306973880841134e+00,4.347139981495820038e+00
5.049259731970905385e+00,4.434991873909226001e+00
5.071643070878333326e+00,4.519314657818216396e+00
5.094489818665763892e+00,4.620644603982070109e+00
5.117862843461701949e+00,4.729975494637177036e+00
5.141804534669019766e+00,4.848289264947641897e+00
5.166362645692297306e+00,4.976756646022734820e+00
5.191591354786069701e+00,5.116786246086920009e+00
5.217552610705942229e+00,5.270090349335339042e+00
5.244317863501272825e+00,5.438774645680315878e+00
5.271970325785060751e+00,5.625462971097867637e+00
5.300418442196762392e+00,5.755913196656265107e+00
5.329760240107655811e+00,5.985341751086729722e+00
5.360322051900011431e+00,6.244945329169826920e+00
5.392271840221053658e+00,6.541925682818008347e+00
5.425819929641708228e+00,6.886215669865642930e+00
5.461236107568702813e+00,7.291994605775244054e+00
5.498876932599642942e+00,7.780392008744304810e+00
5.539231981519084691e+00,8.384680728739162703e+00
5.583008396002520968e+00,9.161261959927529119e+00
5.631302447472099182e+00,1.021619880786224144e+01
5.686005040500833552e+00,1.178323182222645116e+01
5.749794617143461295e+00,1.397001605398688007e+01
5.833161220180799411e+00,2.000000000000000000e+01
5.994728660821193600e+00,2.000000000000000000e+01
6.076808248744597130e+00,1.441302017323130968e+01
6.143788479741076003e+00,1.262051663668495216e+01
6.204512420392565453e+00,1.176759555829140780e+01
6.262649850367806081e+00,1.154547363229738721e+01
6.320069314527970938e+00,1.147405417829754271e+01
6.377928971023862914e+00,1.172967744947926327e+01
6.438108915515211805e+00,1.244016817660205376e+01
6.505499479040553368e+00,1.484185146938001409e+01
6.592386088756497564e+00,2.000000000000000000e+01
6.725768374530546545e+00,1.642784797419635012e+01
6.793614236655022509e+00,1.169123875287957404e+01
6.846872623979765038e+00,9.811014225139828682e+00
6.892956718281110007e+00,8.701919877832200001e+00
6.934459287985470510e+00,7.940393606824672545e+00
6.972679384314684370e+00,7.372489376831549812e+00
7.008385297638016986e+00,6.926259926177132265e+00
7.042119560297157577e+00,6.578351923290896686e+00
7.074262358533325745e+00,6.286816463339749639e+00
7.105057998162412680e+00,6.037590384491297257e+00
7.134692724571775280e+00,5.821132238556957716e+00
7.163312594403254074e+00,5.630697576200760501e+00
7.191034793224603483e+00,5.461358797109299168e+00
7.217955129251699020e+00,5.309416272236978429e+00
7.244153179451237712e+00,5.172028096943811271e+00
7.269695932695611873e+00,5.046968322966242759e+00
7.294640436317124887e+00,4.932463943734420653e+00
7.319035761752395786e+00,4.827081914913483374e+00
7.342924492814073112e+00,4.729648960934173196e+00
7.366343871679941202e+00,4.639193449882565545e+00
7.389326694561976439e+00,4.554902477554745310e+00
7.411902021073537128e+00,4.476089654964479969e+00
7.434095742753503266e+00,4.402170570287037066e+00
7.455931043605702691e+00,4.332643846383658293e+00
7.477428776786836373e+00,4.267076340356640962e+00
7.498607775426012978e+00,4.205091451545623471e+00
7.519485111153558776e+00,4.146359791663674521e+00
7.540076310714358243e+00,4.090591670621324560e+00
7.560395538681620842e+00,4.037530992756775738e+00
7.580455752527127444e+00,3.986950259322775914e+00
7.600280833848635176e+00,3.943368699185950010e+00
7.619881184309893030e+00,3.897107729522110819e+00
7.639255140877567740e+00,3.852785127649051233e+00
7.658412017837116892e+00,3.810252335761015186e+00
7.677352201821731725e+00,3.766149452614820259e+00
7.696084030693608469e+00,3.726827163503221740e+00
7.714622833481519670e+00,3.688921197843693989e+00
7.732978276547662233e+00,3.653438916639062839e+00
7.751156536768688987e+00,3.618061164176814337e+00
7.769160777188416134e+00,3.583817024186368716e+00
7.786996461429775529e+00,3.550625724619827395e+00
7.804668663729403377e+00,3.518412169554702373e+00
7.822182095686274650e+00,3.487106299919752850e+00
7.839541130006475456e+00,3.456642529227330840e+00
7.856749821590887528e+00,3.426959243336520800e+00
