Angle (rad),Angular Velocity (rad/s)
3.000254246110151346e+00,1.016620872020183308e-01
3.001015938917987569e+00,2.029153479027664408e-01
3.002282095427228015e+00,3.033867745072032496e-01
3.004047913355367694e+00,4.027231604453809233e-01
3.006306891623214739e+00,5.005994762003563858e-01
3.009050989157954881e+00,5.967257637049154795e-01
3.012270813903397570e+00,6.908522951999355177e-01
3.015955833043670431e+00,7.827728954982439147e-01
3.020094595310291119e+00,8.723264713469081055e-01
3.024674956775709855e+00,9.593969124785552971e-01
3.029684302592870804e+00,1.043911616289812994e+00
3.035109758541687075e+00,1.125838938674051493e+00
3.040938387809730248e+00,1.205184889743981191e+00
3.047157370008397592e+00,1.281989381257612415e+00
3.053754160886739566e+00,1.356322300693581617e+00
3.060716632474515198e+00,1.428279643526657594e+00
3.068033194425450194e+00,1.497979887774387953e+00
3.075692898135970133e+00,1.565560749139311536e+00
3.083685525803312899e+00,1.631176415082695730e+00
3.092001666995325415e+00,1.694995324339952480e+00
3.100632785576522110e+00,1.757198535874978651e+00
3.108696293364385799e+00,1.468524942471967520e+00
3.115465694170115540e+00,1.239333621878488945e+00
3.121815279405320442e+00,1.300304417571135351e+00
3.128466836781557348e+00,1.360134705930230892e+00
3.135414857880412853e+00,1.418904265963093714e+00
3.142654264983139267e+00,1.476705572013650825e+00
3.150180474355108728e+00,1.533643759810093599e+00
3.157989460052148978e+00,1.589836878918913676e+00
3.166077819834150375e+00,1.645416494538257446e+00
3.174442845114383349e+00,1.700528713882404563e+00
3.183082597293663163e+00,1.755335731488849360e+00
3.191995993366484097e+00,1.810018016119573359e+00
3.201182904396488116e+00,1.864777303240843231e+00
3.210644271419096363e+00,1.919840616992043225e+00
3.220382244653078985e+00,1.975465632830150531e+00
3.230400353758867027e+00,2.031947820447430608e+00
3.240703719526133675e+00,2.089629998293334179e+00
3.251299321206804205e+00,2.148915222596844199e+00
3.262196339371619125e+00,2.210284386766535825e+00
3.273406602707793933e+00,2.274320628260511956e+00
3.284945180363992634e+00,2.341743820665747045e+00
3.296831182377196079e+00,2.413460423445097369e+00
3.309088864974705668e+00,2.490637455609357342e+00
3.321749195677330402e+00,2.574815738661135445e+00
3.334852136005479029e+00,2.668089779547810014e+00
3.348450090918618560e+00,2.773406476333906134e+00
3.362613351851290400e+00,2.895088784557947825e+00
3.377439162662267513e+00,3.039818215687302594e+00
3.393067907613857237e+00,3.218646807414202282e+00
3.409714837553520006e+00,3.451632513505987987e+00
3.429504500452495108e+00,4.539574121006523022e+00
3.454090545036536231e+00,5.404562468918175711e+00
3.486536344138360999e+00,8.581238588122474198e+00
3.537359848433097920e+00,6.044976345427823361e+00
3.560001146365095348e+00,3.545853658852880397e+00
3.576677970782881744e+00,3.160733021406466836e+00
3.591847616138059252e+00,2.923457387610572944e+00
3.606033531066703546e+00,2.759981746947525405e+00
3.619518857630409148e+00,2.639814145244181898e+00
3.632478082742681025e+00,2.547697423852168352e+00
3.645028033267391443e+00,2.475006229067015617e+00
3.657251581044573818e+00,2.416435233015715056e+00
3.669210074143877787e+00,2.368512488672207539e+00
3.680950444582645087e+00,2.328855158374982803e+00
3.692509546656029595e+00,2.295765072025166553e+00
3.703916944237143571e+00,2.267994407391965339e+00
3.715196777233381376e+00,2.244602747882973315e+00
3.726369054828233107e+00,2.224866100564969695e+00
3.737450577613280256e+00,2.208216887417598251e+00
3.748455611365343998e+00,2.194203147670340748e+00
3.758956143432676811e+00,2.009381106103584003e+00
3.768997686043097151e+00,2.007412524610297844e+00
3.779031933342343219e+00,2.006443388327289856e+00
3.789063603902048438e+00,2.006365167494109425e+00
3.799096914898883792e+00,2.007085313500534429e+00
3.809135654787622283e+00,2.008524474422079820e+00
3.819183243543960771e+00,2.010614281590464625e+00
3.829242782981835624e+00,2.013295573849406495e+00
3.839317099074965878e+00,2.016516960869599195e+00
3.849408777784667279e+00,2.020233651707722178e+00
3.859336250370196009e+00,1.951727427288358907e+00
3.869111945514223994e+00,1.958593236606363197e+00
3.878922595472185098e+00,1.965706756405979805e+00
3.888769401508425982e+00,1.973053394988238951e+00
3.898810727523783104e+00,2.042801016497882038e+00
3.908812752563655568e+00,1.959062534071045691e+00
3.918629962464680538e+00,1.967846186932735719e+00
3.928350903343556411e+00,1.921134453196087666e+00
3.937982769009055861e+00,1.931622449304322142e+00
3.947667235454310308e+00,1.942175024101655101e+00
3.957404629655238537e+00,1.952793849528186687e+00
3.967286997526411785e+00,1.999806415211525801e+00
3.977310747640161015e+00,2.009712789425057267e+00
3.987384316923151317e+00,2.019734078262221733e+00
3.997508280200038566e+00,2.029870445681293489e+00
4.007683214043807673e+00,2.040122422852973738e+00
4.017858223426537201e+00,2.030091631432769717e+00
4.027986165915102390e+00,2.021282449069580878e+00
4.038072957928740436e+00,2.013619515781051028e+00
4.048124157663064437e+00,2.007034750797066280e+00
4.058144999329043934e+00,2.001466511426339245e+00
4.068140423493181501e+00,1.996858871094474797e+00
4.078115104064596430e+00,1.993160997156004477e+00
4.088073472386992258e+00,1.990326612656831085e+00
4.098019738821761848e+00,1.988313529068077345e+00
4.107957912149485580e+00,1.987083239290303505e+00
4.117891817068318083e+00,1.986600562062017516e+00
4.127825110027286470e+00,1.986833330392731245e+00
4.137761293598741119e+00,1.987752117851137923e+00
4.147703729565912489e+00,1.989329997529548644e+00
4.157655650877738474e+00,1.991542329320362903e+00
4.167620172603043294e+00,1.994366571813405153e+00
4.177600301999119914e+00,1.997782115681546955e+00
4.187598947795325266e+00,2.001770135887607438e+00
4.197618928779941250e+00,2.006313460435214857e+00
4.207662981768027777e+00,2.011396453713798493e+00
4.217733769018949808e+00,2.017004912764228219e+00
4.227794124723602387e+00,2.007339235375920072e+00
4.237963226060344368e+00,2.060038534993043680e+00
4.248280052109120852e+00,2.066776543920651577e+00
4.258631829829299775e+00,2.074017589123331895e+00
4.269021051131520750e+00,2.081752549538869346e+00
4.279450165083562574e+00,2.089973400111444057e+00
4.289921583261427251e+00,2.098673161323565850e+00
4.300521786167205818e+00,2.141229250467415746e+00
4.311250939019408257e+00,2.150513260973193397e+00
4.321998355816562665e+00,2.148625361449867821e+00
4.332767212150938185e+00,2.158995966071523220e+00
4.343589101408206865e+00,2.169838159357232232e+00
4.354457613936158822e+00,2.177672905231003320e+00
4.365392182062600490e+00,2.196177831984091000e+00
4.376419637237900950e+00,2.214829757012200417e+00
4.387525174592607158e+00,2.227464601947526379e+00
4.398739889476914300e+00,2.258349103238326716e+00
4.410057888856449893e+00,2.268957542090729529e+00
4.421423687569788541e+00,2.277492686901775976e+00
4.432866813811969564e+00,2.299769487608188889e+00
4.444402803855585837e+00,2.314710851560007221e+00
4.455991017979406443e+00,2.320750693056383707e+00
4.467668493773894411e+00,2.350192128261935576e+00
4.479513887514715798e+00,2.387834589866670409e+00
4.491479815445210022e+00,2.398693586048847415e+00
4.503554834596648959e+00,2.431237477199545971e+00
4.515751146985769182e+00,2.447405344223538393e+00
4.528025883351252112e+00,2.462629274779600586e+00
4.540398376241099321e+00,2.486407782422475954e+00
4.552879513937171829e+00,2.506151236580627106e+00
4.565447587240726968e+00,2.521264123934388479e+00
4.578124591198610815e+00,2.549528907828154889e+00
4.590953914824906335e+00,2.582118629259346321e+00
4.603912583659312219e+00,2.601525413581819990e+00
4.616973159718426700e+00,2.622865436572554998e+00
4.630162135896733311e+00,2.652697030144682611e+00
4.643485082849021062e+00,2.676632197634724708e+00
4.656935422659362445e+00,2.703582208723407376e+00
4.670518498069877289e+00,2.729789691866183698e+00
4.684237120832064782e+00,2.757748968433083814e+00
4.698100378698175206e+00,2.787513523310371610e+00
4.712109042253069369e+00,2.816191557028234094e+00
4.726263800500484002e+00,2.845761178857244111e+00
4.740570707138526352e+00,2.877238252791376016e+00
4.755030959081286035e+00,2.906884516625566128e+00
4.769648814880547150e+00,2.940472919494005133e+00
4.784435266360397954e+00,2.974291122129334664e+00
4.799398502334018879e+00,3.011262352753733218e+00
4.814546640654821630e+00,3.048221012162015242e+00
4.829883057846858563e+00,3.086587138607153058e+00
4.845425478624922455e+00,3.130731548276664000e+00
4.861193975411969070e+00,3.177037618764454674e+00
4.877156471695815121e+00,3.208022840131462328e+00
4.893285927592248008e+00,3.243908717565185285e+00
4.909580860998621787e+00,3.274116843998081006e+00
4.926085491197208732e+00,3.328166990994146701e+00
4.942828212195228943e+00,3.369143139556779687e+00
4.959763442609608219e+00,3.405094110000322694e+00
4.976931880651111584e+00,3.462738490220709675e+00
4.994371035235302791e+00,3.513276375525980821e+00
5.012022106660446674e+00,3.547273656415067755e+00
5.029901737693731612e+00,3.605028354445014571e+00
5.048039107629661792e+00,3.650197793635554522e+00
5.066398494455219392e+00,3.693815444017509275e+00
5.084979964706271005e+00,3.739055162799905130e+00
5.103847646216928879e+00,3.808636811326047589e+00
5.122993647821536989e+00,3.849998613982306139e+00
5.142497904031622546e+00,3.952807462115118131e+00
5.162409444891342680e+00,4.012310756493448594e+00
5.182626290684394732e+00,4.074982935713328480e+00
5.203254975905788449e+00,4.177661111326276711e+00
5.224387897930995450e+00,4.276652916064215049e+00
5.246033688387712779e+00,4.382959992799897897e+00
5.268105580418582790e+00,4.446407386251691740e+00
5.290571662086051674e+00,4.541190902686913056e+00
5.313711093239798622e+00,4.717279309723914515e+00
5.337598050958743734e+00,4.839276671689901832e+00
5.362059742652584227e+00,4.946940754039908406e+00
5.387267040906708715e+00,5.139421687668414229e+00
5.413242925300575159e+00,5.252705610633506161e+00
5.440112750486643556e+00,5.500430051574902279e+00
5.468066023626325212e+00,5.684700940587451790e+00
5.497367447058826073e+00,6.045237808389159362e+00
5.528292219397682672e+00,6.332442243082574862e+00
5.560655734333902700e+00,6.621430819348621100e+00
5.594896028747291084e+00,7.091736584229242801e+00
5.631895612577283217e+00,7.736394339431742928e+00
5.671936960636575265e+00,8.308568934850267595e+00
5.716142507258458849e+00,9.452812355942803890e+00
5.767921639156909031e+00,1.146464788092201026e+01
5.833575040220611463e+00,1.557693856908747421e+01
5.969070937246788056e+00,2.000000000000000000e+01
6.048918126003655082e+00,1.393213619367798728e+01
6.113922031282617020e+00,1.233180997664343437e+01
6.172128927241475438e+00,1.107529809574134205e+01
6.226895837878914541e+00,1.088370592699903838e+01
6.281286416529517247e+00,1.091677912385200244e+01
6.336953943932225997e+00,1.140140302424616614e+01
6.395313560363568683e+00,1.201564390954105654e+01
6.457944169568426318e+00,1.317830745520333302e+01
6.530520558408027476e+00,1.638675711684170366e+01
6.648954405693318748e+00,2.000000000000000000e+01
6.672294254590453555e+00,2.036365773379357869e+00
6.685186434393154187e+00,2.978629958395762944e+00
6.696523265713838491e+00,1.673845090058572405e+00
6.703908886685415958e+00,1.297856099667373808e+00
6.710021445324876765e+00,1.151693928368000996e+00
6.712950628803968200e+00,3.795875833276118883e-02
6.713665008399891221e+00,2.468951514449984619e-01
6.711868024727472459e+00,-9.776055773860640175e-01
6.705508568601215913e+00,-1.588036750302531663e+00
6.696113295432167156e+00,-2.207053180367062328e+00
6.680300379233801600e+00,-4.412651097649824550e+00
