Angle (rad),Angular Velocity (rad/s)
3.000423801480182728e+00,1.694349247712331752e-01
3.001692726359103780e+00,3.378975506404335860e-01
3.003799681838373203e+00,5.045057992234351918e-01
3.006733351732337578e+00,6.684582348368922622e-01
3.010478680915248617e+00,8.290652127703731500e-01
3.015017493962145245e+00,9.857711806799821508e-01
3.020329201442115252e+00,1.138167427553493649e+00
3.026391546910764507e+00,1.285995787737894913e+00
3.033181352671039388e+00,1.429144743349867852e+00
3.040675231145395951e+00,1.567639925636580056e+00
3.048850239305669785e+00,1.701631198577025605e+00
3.057684464342837583e+00,1.831378395637231593e+00
3.067157538430325570e+00,1.957237487036008305e+00
3.077251088424791448e+00,2.079648593444511917e+00
3.087949132558608589e+00,2.199126924443197240e+00
3.099238440898739011e+00,2.316257470179628797e+00
3.111108880125552645e+00,2.431694153319117646e+00
3.124133859229491605e+00,2.777867968461373849e+00
3.138307216388589449e+00,2.891653369645696081e+00
3.153053128336373856e+00,3.007085301030844704e+00
3.168382904925511667e+00,3.125425829143447576e+00
3.184314690341508491e+00,3.248158780033377546e+00
3.200874780585361457e+00,3.377078977081760414e+00
3.218099488685081333e+00,3.514425486695918810e+00
3.236037840118568987e+00,3.663086504286005685e+00
3.254755569918930558e+00,3.826926437976704953e+00
3.274341248741320598e+00,4.011332777482755851e+00
3.294916077053030357e+00,4.224184078755420124e+00
3.316650423540647097e+00,4.477690617182013000e+00
3.339793840565300709e+00,4.792235473154125458e+00
3.364735183903319271e+00,5.205469966916476565e+00
3.392141531927648224e+00,5.798207721424557981e+00
3.423362127739938199e+00,6.794201884113796552e+00
3.462300977375363242e+00,9.303631495146447605e+00
3.537104877508232104e+00,1.104821226183997140e+01
3.579648545843958196e+00,7.110732470974262753e+00
3.611604055904070076e+00,5.829543766278809436e+00
3.638859988910153387e+00,5.128868627095625854e+00
3.663282390818467071e+00,4.667729127045909365e+00
3.685747180075608309e+00,4.334305305282397214e+00
3.706754563167407035e+00,4.079064740876987116e+00
3.726624313515702891e+00,3.876051646390532124e+00
3.745576556633209542e+00,3.710102216018729582e+00
3.763770997686450404e+00,3.571651890318119804e+00
3.781328157906636012e+00,3.454313349218302243e+00
3.798341819677761855e+00,3.353628051447400171e+00
3.814886775383854900e+00,3.266371854874082103e+00
3.831023889236786939e+00,3.190144945808142563e+00
3.846803535237870886e+00,3.123117613140528714e+00
3.862268008921443396e+00,3.063866172375171004e+00
3.877453265960428830e+00,3.011263424711418502e+00
3.892390205084580668e+00,2.964403378989467264e+00
3.907105634051728948e+00,2.922548210014077608e+00
3.921623009929566805e+00,2.885090060063081108e+00
3.935963015326182202e+00,2.851522995781906822e+00
3.950144013183400027e+00,2.821422066161462183e+00
3.964182410209368790e+00,2.794427423103305053e+00
3.978092950572924558e+00,2.770232114514008526e+00
3.991888955664195215e+00,2.748572583594627972e+00
4.005582521647496286e+00,2.729221190760991345e+00
4.019287707307496404e+00,2.752679229302247954e+00
4.033107666220320020e+00,2.775148328121032737e+00
4.047037713769171319e+00,2.796731057317813907e+00
4.061073656971147194e+00,2.817521642318938646e+00
4.075211754819959786e+00,2.837606777790000478e+00
4.089448682514660760e+00,2.857066368993948835e+00
4.103781499224869123e+00,2.875974205940738937e+00
4.118207619070109793e+00,2.894398575791493400e+00
4.132724785018070612e+00,2.912402818906281166e+00
4.147331045433075403e+00,2.930045833727105808e+00
4.162024733031369550e+00,2.947382535414436955e+00
4.176804446023633766e+00,2.964464272840775738e+00
4.191669031247322152e+00,2.981339208212231640e+00
4.206617569111954502e+00,2.998052663255409200e+00
4.221649360199344336e+00,3.014647435583062585e+00
4.236763913378054802e+00,3.031164088545070801e+00
4.251960935307173450e+00,3.047641217585666418e+00
4.267240321218937815e+00,3.064115695865812672e+00
4.282602146882931393e+00,3.080622901672253722e+00
4.298046661666648838e+00,3.097196929922133801e+00
4.313574282618271916e+00,3.113870789883799617e+00
4.329185589507699383e+00,3.130676591069698755e+00
4.344881320771274424e+00,3.147645719115272911e+00
4.360662370314426717e+00,3.164809003337495596e+00
4.376529785134639638e+00,3.182196877567372795e+00
4.392484763734939790e+00,3.199839535771586085e+00
4.408528655305511634e+00,3.217767083919012006e+00
4.424662959658204109e+00,3.236009689507790998e+00
4.440889327905742867e+00,3.254597730147940737e+00
4.457197599333108329e+00,3.268839893222648563e+00
4.473590165980548150e+00,3.288256587502799810e+00
4.490080890226430199e+00,3.308108319757137483e+00
4.506672028783905937e+00,3.328427847975444553e+00
4.523366004525525952e+00,3.349248906054016039e+00
4.540165411791841521e+00,3.370606376918706903e+00
4.557069431072521937e+00,3.391126948517787731e+00
4.574081175367288310e+00,3.413675512369322540e+00
4.591207266970315892e+00,3.436872605848626083e+00
4.608451051229666362e+00,3.460759654994054912e+00
4.625816086024256535e+00,3.485380288793392900e+00
4.643306153438738093e+00,3.510780607333570558e+00
4.660925272843785550e+00,3.537009476475471814e+00
4.678677715524836245e+00,3.564118853324717673e+00
4.696568021025324668e+00,3.592164147445436662e+00
4.714601015397152928e+00,3.621204623578226922e+00
4.732781831582332899e+00,3.651303852606370803e+00
4.751115932186328550e+00,3.682530218704405112e+00
4.769609134946799500e+00,3.714957492048986065e+00
4.788267641252601514e+00,3.748665478235485349e+00
4.807098068128841106e+00,3.783740757703804913e+00
4.826107484176703544e+00,3.820277531134969706e+00
4.845303450044510463e+00,3.858378590067186309e+00
4.864694064112542904e+00,3.898156436066807284e+00
4.884288014203145067e+00,3.939734576899302176e+00
4.904094636285284636e+00,3.983249034572591718e+00
4.924123981336648193e+00,4.028850108261599061e+00
4.944386891766249903e+00,4.076704445493602336e+00
4.964895089099321979e+00,4.126997488288457916e+00
4.985661275000909498e+00,4.179936378174037515e+00
5.006699248187645779e+00,4.235753426469961447e+00
5.028017063193809477e+00,4.291872581420244082e+00
5.049623207272660785e+00,4.351132892699342669e+00
5.071534135185647330e+00,4.413840455282685760e+00
5.093767935542556913e+00,4.480343929966434047e+00
5.116344563254069833e+00,4.551042682871696776e+00
5.139286117438440549e+00,4.626396913711195324e+00
5.162617176162207500e+00,4.706940378279221626e+00
5.186365202948962860e+00,4.793296534712202295e+00
5.210561044895990257e+00,4.886199266431304977e+00
5.235239549112397306e+00,4.986519809360396849e+00
5.260440333983829042e+00,5.095302221062175008e+00
5.286208765972657986e+00,5.213810813881099016e+00
5.312597213687824116e+00,5.343594669162963662e+00
5.339666682792391761e+00,5.486577068209297359e+00
5.367446269479188459e+00,5.627683790536313069e+00
5.396204265952898815e+00,5.880855031984887127e+00
5.426107840960872508e+00,6.084913347132519412e+00
5.457101937274656756e+00,6.318165192821846077e+00
5.489351079966486857e+00,6.588479388880128518e+00
5.523067005860036183e+00,6.907138445946047867e+00
5.558530703036064224e+00,7.291054446146922885e+00
5.596613645280381633e+00,7.970432609920548472e+00
5.638014385434270359e+00,8.621024417891671732e+00
5.683233957870283959e+00,9.521377051476024533e+00
5.734011448084539886e+00,1.090431044401272054e+01
5.794232401747867911e+00,1.353316070566271989e+01
5.879964753878264894e+00,2.000000000000000000e+01
6.000969861211479461e+00,1.520202242905102175e+01
6.065495330313120270e+00,1.138695131945518924e+01
6.120288282937111468e+00,1.064576385323690566e+01
6.172738645620063913e+00,1.039110617486978327e+01
6.224662124996035217e+00,1.041832093108542523e+01
6.277302246679999698e+00,1.067598243355012322e+01
6.331839375164215689e+00,1.118665426872423652e+01
6.389761906420483584e+00,1.205890105362511910e+01
6.453525742870941606e+00,1.361028440074441903e+01
6.528858586636481220e+00,1.711182356918758174e+01
6.663196761792055334e+00,2.000000000000000000e+01
6.719136690442061521e+00,7.901152813277278142e+00
6.752218579729511561e+00,5.631784818601566656e+00
6.777049170027839686e+00,4.393529248978563118e+00
6.796782229249404672e+00,3.543105636926418445e+00
6.812803747803596544e+00,2.889861400652679269e+00
6.825872501804369108e+00,2.352784516306499540e+00
6.836454585588372268e+00,1.890038633046299710e+00
6.844855401498575631e+00,1.477075301070652547e+00
6.851281625426150157e+00,1.098035627473569864e+00
6.855873618383380830e+00,7.417990333140476178e-01
6.858723487601012359e+00,3.999342263529284125e-01
6.859885325283829438e+00,6.551166134929420348e-02
6.859380653651298232e+00,-2.676774801444919971e-01
6.857200474304027793e+00,-6.057273812328513030e-01
6.853304408849067109e+00,-9.551971868748792005e-01
6.847616727867202435e+00,-1.323800687279651500e+00
6.840018287628189420e+00,-1.721393249639751488e+00
6.831182752352914278e+00,-1.814140587808269478e+00
6.820956704350018995e+00,-2.286382735960903467e+00
6.809056749267775821e+00,-2.478159186071329234e+00
6.795171591620853491e+00,-3.096281082323005585e+00
6.777826731907930835e+00,-3.876930394139783242e+00
6.755905827043547696e+00,-4.962411439379739164e+00
6.727050019728379127e+00,-6.774322129217070554e+00
6.683373842853566060e+00,-1.210655777322720539e+01
6.589721441723285444e+00,-1.197160789996216934e+01
6.541347558059118938e+00,-8.203684885945209615e+00
6.504906626927911439e+00,-6.528579466527212993e+00
6.475101746353066900e+00,-5.454548039383221081e+00
6.449927980807550476e+00,-4.646010686073075213e+00
6.428405937582960306e+00,-3.980778515655062577e+00
6.409978271760502722e+00,-3.401498517059355020e+00
6.394300333826492988e+00,-2.876982205733748188e+00
6.381148627382621008e+00,-2.388574103877592059e+00
6.370374473452831587e+00,-1.924364595849689996e+00
6.361270398907636014e+00,-1.718637299732269863e+00
6.353777564026378499e+00,-1.280192863202694653e+00
6.347259613855785965e+00,-1.327179014703216975e+00
6.340652158596734367e+00,-1.316133824902093963e+00
6.334537819501584899e+00,-1.130205130294494209e+00
6.329932877824724358e+00,-7.124656365345727327e-01
6.326527884568468707e+00,-6.497115503801977887e-01
6.323580435588517012e+00,-5.294580728402419334e-01
6.320793242474453955e+00,-5.854855524061237659e-01
6.317870744927843063e+00,-5.836205282563562413e-01
6.315393007086248289e+00,-4.076466186798662350e-01
6.314375168061233445e+00,3.876916061948398884e-04
