Angle (rad),Angular Velocity (rad/s)
3.000254246110151346e+00,1.016620872020183308e-01
3.001015938917987569e+00,2.029153479027664408e-01
3.002282095427228015e+00,3.033867745072032496e-01
3.004047913355367694e+00,4.027231604453809233e-01
3.006306891623214739e+00,5.005994762003563858e-01
3.009050989157954881e+00,5.967257637049154795e-01
3.012270813903397570e+00,6.908522951999355177e-01
3.015955833043670431e+00,7.827728954982439147e-01
3.020094595310291119e+00,8.723264713469081055e-01
3.024674956775709855e+00,9.593969124785552971e-01
3.028885434905951968e+00,7.253076407887590893e-01
3.032726185970894495e+00,8.106579085530373208e-01
3.036988579582233783e+00,8.939486825411092630e-01
3.041662107151404726e+00,9.751011799796812651e-01
3.046735949941763444e+00,1.054069860508107581e+00
3.052199140829592761e+00,1.130840554044055146e+00
3.058040715496873840e+00,1.205428138926582848e+00
3.064098310600789521e+00,1.217423602659721382e+00
3.070363575651428700e+00,1.288349497079804618e+00
3.076978537938354297e+00,1.357315466938335824e+00
3.083933608234512125e+00,1.424408770655241963e+00
3.091219678429585560e+00,1.489734270489958101e+00
3.098828204912214446e+00,1.553412630666186400e+00
3.106751283789763729e+00,1.615578864485739174e+00
3.114981719834800433e+00,1.676381286492263145e+00
3.123658054566526232e+00,1.793908830493445850e+00
3.132774010838786705e+00,1.852325608000174872e+00
3.142180002246608872e+00,1.909957830084101582e+00
3.151872642826973436e+00,1.967022824313222173e+00
3.161849674395408094e+00,2.023754828954555052e+00
3.172110058768410568e+00,2.080408238428259615e+00
3.182654089087252114e+00,2.137262042781935101e+00
3.193483526969012498e+00,2.194625782964219507e+00
3.204601774153449600e+00,2.252847486330343596e+00
3.216014090129743153e+00,2.312324258280737510e+00
3.227727871350023925e+00,2.373516525856500525e+00
3.239753013761701883e+00,2.436967424442567420e+00
3.252102389658119375e+00,2.503329605616171349e+00
3.264792484183016263e+00,2.573403030499853195e+00
3.277844259588095444e+00,2.648189484172261743e+00
3.291284352610700292e+00,2.728973346941761413e+00
3.305146773566078000e+00,2.817445092847660426e+00
3.319475387599962968e+00,2.915897268204983295e+00
3.334327666467831630e+00,3.027549644140130614e+00
3.349780609450971891e+00,3.157118782189143769e+00
3.365940602904879064e+00,3.311885738101350452e+00
3.382961015356186874e+00,3.503880374105909468e+00
3.401076650385884026e+00,3.754907585975184148e+00
3.420680704706026809e+00,4.110234845932458470e+00
3.442535826886394368e+00,4.687314082538625470e+00
3.468625933561564345e+00,5.970971102734257130e+00
3.517598255049868339e+00,1.010946021988987731e+01
3.551152892607039036e+00,5.287823250947589315e+00
3.574835447408604594e+00,4.323518292256482098e+00
3.595131547139309713e+00,3.838113442697092204e+00
3.613507891686281059e+00,3.532524381955803428e+00
3.630606701113241463e+00,3.318315234562954963e+00
3.646780557085169683e+00,3.158361436634286257e+00
3.662248986621742475e+00,3.033860306046792576e+00
3.677160162126332565e+00,2.934089273015182187e+00
3.691619908686829543e+00,2.852408471636090681e+00
3.705707042090961689e+00,2.784448595978130658e+00
3.719482195140549674e+00,2.727196841512864456e+00
3.732993233278782519e+00,2.678497212167527231e+00
3.746278749431795063e+00,2.636759575452197968e+00
3.759370413202623329e+00,2.600781427830950232e+00
3.772294604086616321e+00,2.569634034291255809e+00
3.785073579546049949e+00,2.542587087605967522e+00
3.797726330848204768e+00,2.519057339469082279e+00
3.810269223351155699e+00,2.498572659280339003e+00
3.822716484327306041e+00,2.480746314422140220e+00
3.835080580634743441e+00,2.465258196936685575e+00
3.847372515299980922e+00,2.451840877844917443e+00
3.859924802048207759e+00,2.567377587515024207e+00
3.872723779258844701e+00,2.552551638047309890e+00
3.885453522518062197e+00,2.539649256568175861e+00
3.898123154682398450e+00,2.528477504809143017e+00
3.910740905097482401e+00,2.518871029637047343e+00
3.923529978002317620e+00,2.595805087347007323e+00
3.936484125587889515e+00,2.586100361131697944e+00
3.949393338294481914e+00,2.577810227160224343e+00
3.962264389335593329e+00,2.570817472475930732e+00
3.975103504031435531e+00,2.565019745249825345e+00
3.987916428390078316e+00,2.560327338994567103e+00
4.000708487638927835e+00,2.556661373129883064e+00
4.013510855065264060e+00,2.564316984908068253e+00
4.026351974553890045e+00,2.572162843020557421e+00
4.039232807182025375e+00,2.580202920006009037e+00
4.052154334407984670e+00,2.588441396519575388e+00
4.065117559123932800e+00,2.596882666367309689e+00
4.078123506736258896e+00,2.605531342514264992e+00
4.091173226278370656e+00,2.614392264039472114e+00
4.104267791560595846e+00,2.623470504025097405e+00
4.117408302361869055e+00,2.632771378379556548e+00
4.130595885667881717e+00,2.642300455605627540e+00
4.143831696960483590e+00,2.652063567535003497e+00
4.157116921563235756e+00,2.662066821060559807e+00
4.170452776048199084e+00,2.672316610907100376e+00
4.183840509709277455e+00,2.682819633490723721e+00
4.197281406107701507e+00,2.693582901926404816e+00
4.210776784695561936e+00,2.704613762253067044e+00
4.224328002523678016e+00,2.715919910955535865e+00
4.237936456040497291e+00,2.727509413873428823e+00
4.251603582989223362e+00,2.739390726598449177e+00
4.265330864410881162e+00,2.751572716473872582e+00
4.279119826761647261e+00,2.764064686323412179e+00
4.292972044153440692e+00,2.776876400051325078e+00
4.306889140727520271e+00,2.790018110271805352e+00
4.320813456003482322e+00,2.780003995036449460e+00
4.334748698756391683e+00,2.794149357377837983e+00
4.348755522636523985e+00,2.808638573981094844e+00
4.362835679314270187e+00,2.823484701569495492e+00
4.376990987236763608e+00,2.838701401571035454e+00
4.391223334765822273e+00,2.854302986418555843e+00
4.405534683555685227e+00,2.870304469228714961e+00
4.419927072188393424e+00,2.886721617249449423e+00
4.434402620086714819e+00,2.903571009506132672e+00
4.448963531726783494e+00,2.920870099123396013e+00
4.463612101175129077e+00,2.938637280853415135e+00
4.478350716977582913e+00,2.956891964403410178e+00
4.493181867430689813e+00,2.975654654226395746e+00
4.508108146269764305e+00,2.994947036521315997e+00
4.523132258811705775e+00,3.014792074283343837e+00
4.538257028595139353e+00,3.035214111354395339e+00
4.553485404565526196e+00,3.056238986550279702e+00
4.568820468858617367e+00,3.077894159087338100e+00
4.584265445242148296e+00,3.100208846701474563e+00
4.599823708283130586e+00,3.123214178050425893e+00
4.615498793316607617e+00,3.146943361221098190e+00
4.631294407301500549e+00,3.171431870434072486e+00
4.647214440660422774e+00,3.196717653354526512e+00
4.663262980213268349e+00,3.222841361792060599e+00
4.679444323329391864e+00,3.249846609012580156e+00
4.695762993440554922e+00,3.277780257407343800e+00
4.712223757077060426e+00,3.306692740884668247e+00
4.728831642613120501e+00,3.336638427089829495e+00
4.745591960935167108e+00,3.367676025444783505e+00
4.762511146150471220e+00,3.400220136080524203e+00
4.779595266727530323e+00,3.433638233665965434e+00
4.796854322497887679e+00,3.470282054313911235e+00
4.814285827500474291e+00,3.502429615776101457e+00
4.831888947686067581e+00,3.539044472292664167e+00
4.849662517688678065e+00,3.570462371143382274e+00
4.867619040583359258e+00,3.612460846277875337e+00
4.885786886730214995e+00,3.654984038661998280e+00
4.904148621200556057e+00,3.689855205791485293e+00
4.922730340000252447e+00,3.743311405054466690e+00
4.941581916034524902e+00,3.797800290906474086e+00
4.960687085364107851e+00,3.844608348791839880e+00
4.980014344085073041e+00,3.886551752982371433e+00
4.999617671608748815e+00,3.955458964503901331e+00
5.019535420584650964e+00,4.012123918276369494e+00
5.039802547780808162e+00,4.095622818847007629e+00
5.060501043261813159e+00,4.184761011346931348e+00
5.081660518974436158e+00,4.280118984512760960e+00
5.103313718072733707e+00,4.382371745663228957e+00
5.125497036590590305e+00,4.492309276145711294e+00
5.148251161054703928e+00,4.610862732979832401e+00
5.171621855522341882e+00,4.739138415226086920e+00
5.195660943646307928e+00,4.878462382671614250e+00
5.220427548874135404e+00,5.030439935191747480e+00
5.245989681676970662e+00,5.197036214144771016e+00
5.272426301540900972e+00,5.380687459664112993e+00
5.299761148326289195e+00,5.556291027105478619e+00
5.327853154787589141e+00,5.682557986173375042e+00
5.356876745032458587e+00,5.931959821199221494e+00
5.387229285321916805e+00,6.215355440153090605e+00
5.419101124910901568e+00,6.541359243741927010e+00
5.452733762745734403e+00,6.922073220665469151e+00
5.488441999611181288e+00,7.375173355445993728e+00
5.526650440698548827e+00,7.927781870606693815e+00
5.567957871258793823e+00,8.624294949697116408e+00
5.613261556606100378e+00,9.544130892850187564e+00
5.664030032870924991e+00,1.084914013762126572e+01
5.723033104990659758e+00,1.294770813950685806e+01
5.797165462831427973e+00,1.743705051147437146e+01
5.948499889092953907e+00,2.000000000000000000e+01
6.016495739151146438e+00,1.066868275131558086e+01
6.065945121390207362e+00,9.318368744108676438e+00
6.110863049908767941e+00,8.721007980815905114e+00
6.153666474050629276e+00,8.437961572192508086e+00
6.195544720087926116e+00,8.338489129171302139e+00
6.237275168240800305e+00,8.374354271356724055e+00
6.279490241321445509e+00,8.532136862117987164e+00
6.322814942141118166e+00,8.821805312342137384e+00
6.367987464129508446e+00,9.280475834662933465e+00
6.416040615468460828e+00,9.995362686774022620e+00
6.468711923067845149e+00,1.118523915580116856e+01
6.529810796941336370e+00,1.360062952029855055e+01
6.616042792570953068e+00,2.000000000000000000e+01
6.726781899151596633e+00,1.285791342931757342e+01
6.782092797002253093e+00,9.820812236330626277e+00
6.826417902974765362e+00,8.080979824230801967e+00
6.864757451883178874e+00,7.305067652537149847e+00
6.899682562774533068e+00,6.695965182971078455e+00
6.931567272830536197e+00,6.084254088144731121e+00
6.961020617498777874e+00,5.709934151803853553e+00
6.988475363836310628e+00,5.285217407550602431e+00
7.014164626119300472e+00,4.998002355426031329e+00
7.038642615976858252e+00,4.797634636181626888e+00
7.061884767641224414e+00,4.505689506760160334e+00
7.083927159805988971e+00,4.314865533317607138e+00
7.105160534775446735e+00,4.180650881649214057e+00
7.125548391381110847e+00,3.977904343833059020e+00
7.144943304042532084e+00,3.783095845647371558e+00
7.163561470356127892e+00,3.665704678785610238e+00
7.181541981818859277e+00,3.528282536168735550e+00
7.198975194654595455e+00,3.445868327893369720e+00
7.216116972809204277e+00,3.410989904611029022e+00
7.232902056716146610e+00,3.304198795260739452e+00
7.249306009381419891e+00,3.257687882007460622e+00
7.265296942301851857e+00,3.139900035148973867e+00
7.280804484223343032e+00,3.063770656927523373e+00
7.296041585522704764e+00,3.031188568126344407e+00
7.310925278770436186e+00,2.923269240617955234e+00
7.325436649845776138e+00,2.881495912484047572e+00
7.339727675021152642e+00,2.835175250915204170e+00
7.353846929854130465e+00,2.812532924691185876e+00
