Angle (rad),Angular Velocity (rad/s)
3.000423801480182728e+00,1.694349247712331752e-01
3.001692726359103780e+00,3.378975506404335860e-01
3.003799681838373203e+00,5.045057992234351918e-01
3.006733351732337578e+00,6.684582348368922622e-01
3.010478680915248617e+00,8.290652127703731500e-01
3.015017493962145245e+00,9.857711806799821508e-01
3.020329201442115252e+00,1.138167427553493649e+00
3.026391546910764507e+00,1.285995787737894913e+00
3.033181352671039388e+00,1.429144743349867852e+00
3.040675231145395951e+00,1.567639925636580056e+00
3.048850239305669785e+00,1.701631198577025605e+00
3.057684464342837583e+00,1.831378395637231593e+00
3.067157538430325570e+00,1.957237487036008305e+00
3.077251088424791448e+00,2.079648593444511917e+00
3.087949132558608589e+00,2.199126924443197240e+00
3.099238440898739011e+00,2.316257470179628797e+00
3.111108880125552645e+00,2.431694153319117646e+00
3.123553766739502802e+00,2.546164184493437066e+00
3.136570256995630412e+00,2.660478589865045596e+00
3.150159807761341302e+00,2.775550347144501551e+00
3.164328751525958161e+00,2.892422376018034758e+00
3.179089043091241518e+00,3.012308968313358815e+00
3.194459258480247588e+00,3.136656466053330927e+00
3.210465964240145187e+00,3.267232777710642466e+00
3.227145638326141874e+00,3.406261996461990460e+00
3.244547432605852766e+00,3.556632690792348672e+00
3.262737262805682104e+00,3.722232338095687876e+00
3.281804082024367020e+00,3.908509712832620941e+00
3.301869939323394565e+00,4.123476682302350760e+00
3.323107046634298012e+00,4.379627720948993996e+00
3.345768974616666114e+00,4.697985163612309556e+00
3.370253788471894385e+00,5.117809938430580630e+00
3.397252281267096219e+00,5.724830957772150342e+00
3.428191224070093135e+00,6.764199985203837251e+00
3.467439830193964845e+00,9.579449152731449146e+00
3.542550033540713184e+00,1.043529654241640259e+01
3.584075779347071222e+00,7.100202837738903483e+00
3.616144048493664442e+00,5.871930665948532635e+00
3.643653689836780174e+00,5.185329264591021392e+00
3.668372186263801016e+00,4.728878762045952477e+00
3.691147183923259689e+00,4.396917471932707322e+00
3.712468342308372193e+00,4.141823324563715936e+00
3.732650952723457927e+00,3.938374123617522038e+00
3.751913133321620020e+00,3.771727122893861583e+00
3.770413708935169694e+00,3.632470647639929773e+00
3.788272871135053954e+00,3.514294170945727380e+00
3.805584353322075231e+00,3.412778838996131103e+00
3.822423044499894562e+00,3.324721089411244446e+00
3.838849980245387261e+00,3.247731458871995436e+00
3.854915742258504086e+00,3.179984968882561436e+00
3.870662848868558381e+00,3.120059543834547089e+00
3.886127481828669517e+00,3.066827861635017083e+00
3.901340762741158930e+00,3.019382870312649736e+00
3.916329715596704730e+00,2.976985207340496764e+00
3.931118005407301386e+00,2.939025270716029592e+00
3.945726513831076421e+00,2.904995333313068695e+00
3.960173793966281774e+00,2.874468691622607430e+00
3.974476434129697644e+00,2.847083836985720318e+00
3.988649352084534083e+00,2.822532275130767765e+00
4.002706035427169518e+00,2.800549037294080446e+00
4.016814653649740663e+00,2.842472671266294881e+00
4.031126695552496919e+00,2.881955801372882320e+00
4.045630504414225115e+00,2.919214058476167661e+00
4.060315462066811598e+00,2.954447380719353866e+00
4.075171912707949318e+00,2.987840934565708206e+00
4.090191091443689864e+00,3.019566079452569163e+00
4.105365057694100095e+00,3.049781343824884861e+00
4.120686633457570913e+00,3.078633389334886505e+00
4.136149346331575494e+00,3.106257947018391086e+00
4.151747377120832638e+00,3.132780714657448673e+00
4.167475511820593503e+00,3.158318208635932045e+00
4.183329097737354729e+00,3.182978566660336739e+00
4.199304003497108972e+00,3.206862299976239505e+00
4.215396582688686777e+00,3.230062995343240040e+00
4.231603640894133100e+00,3.252667968183585501e+00
4.247922405867224249e+00,3.274758869107798898e+00
4.264350500633643293e+00,3.296412246535594726e+00
4.280885919300765785e+00,3.317700068443325545e+00
4.297527005380640475e+00,3.338690206435320107e+00
4.314272432445929617e+00,3.359446885398299276e+00
4.331121186954850266e+00,3.380031101988187903e+00
4.348072553097304116e+00,3.400501015141967009e+00
4.365126099530119319e+00,3.420912311722630772e+00
4.382281667884645238e+00,3.441318550307231661e+00
4.399524267175909387e+00,3.455811417213630943e+00
4.416854839684055456e+00,3.476436868243554024e+00
4.434288869354077178e+00,3.497202385860100904e+00
4.451827177375428768e+00,3.518156181454050291e+00
4.469413907379758299e+00,3.516913692101406586e+00
4.487052586504450602e+00,3.538605390294645936e+00
4.504800474888710937e+00,3.560605255325813179e+00
4.522659231404646540e+00,3.582960540558020046e+00
4.540630751985338165e+00,3.605718861429040523e+00
4.558717172106304893e+00,3.628928464967981604e+00
4.576920870633209404e+00,3.652638507276658508e+00
4.595244475083354097e+00,3.676899342096403789e+00
4.613690868364708209e+00,3.701762823868782970e+00
4.632263197074282246e+00,3.727282629056866803e+00
4.650964881457406719e+00,3.753514599938624574e+00
4.669799627151941301e+00,3.780517115629182801e+00
4.688771438866814911e+00,3.808351495756753025e+00
4.707884636173386816e+00,3.837082443032910017e+00
4.727143871621737325e+00,3.866778531954250475e+00
4.746554151433120872e+00,3.897512752090267707e+00
4.766120859065694937e+00,3.929363115903525827e+00
4.785849782004778952e+00,3.962413342879285594e+00
4.805747142193240506e+00,3.996753633997685018e+00
4.825819630594478049e+00,4.032481553372194938e+00
4.846074446472958819e+00,4.069703037345787422e+00
4.866519342089144828e+00,4.108533555667179371e+00
4.887162673641815225e+00,4.149099454808443888e+00
4.908013459457617245e+00,4.191539520356743154e+00
4.929081446633293062e+00,4.236006804150254546e+00
4.950377187591170625e+00,4.282670773015364141e+00
4.971912128327334202e+00,4.331719850392253157e+00
4.993698710533137408e+00,4.383364440897315362e+00
5.015750490279639706e+00,4.437840552471596922e+00
5.038118480172839142e+00,4.510147740878060141e+00
5.060860283649934566e+00,4.587446836708808817e+00
5.084002134713404786e+00,4.670260446958115708e+00
5.107573085617225672e+00,4.759195973963755932e+00
5.131605474972466219e+00,4.854964009059679064e+00
5.156135500135348160e+00,4.958401905701438572e+00
5.181203924070937106e+00,5.070504356581937877e+00
5.206856957844397726e+00,5.192463587255503832e+00
5.233147375737555507e+00,5.325722977756317533e+00
5.260135943359420807e+00,5.472049789804610320e+00
5.287893274360413010e+00,5.633635656149349913e+00
5.316502285838049957e+00,5.813238381413753153e+00
5.346061509142931101e+00,6.014386903666069095e+00
5.376689655025177039e+00,6.241685874607681761e+00
5.408532074437411907e+00,6.501283149510237003e+00
5.441770187645692758e+00,6.801615287181523861e+00
5.476635762383950556e+00,7.154652299341668353e+00
5.513433532490275901e+00,7.578096489360500954e+00
5.552579114023235896e+00,8.099552062338080560e+00
5.594667392394133465e+00,8.765195622386192653e+00
5.640608701651341761e+00,9.660218906600132271e+00
5.691941589762211429e+00,1.096672598587494640e+01
5.751735958207942367e+00,1.318541501927400184e+01
5.828743181532584750e+00,1.877382457704971230e+01
5.977235703452302040e+00,2.000000000000000000e+01
6.057097952004403929e+00,1.388398817371008143e+01
6.122235177824566499e+00,1.240765838602618842e+01
6.182616084695154335e+00,1.183951533700534853e+01
6.241360495748333292e+00,1.171846329437339307e+01
6.300358368163562872e+00,1.193610515223032031e+01
6.361332913343541229e+00,1.252551012831870736e+01
6.426555295681209756e+00,1.369368988692191103e+01
6.500399674962582530e+00,1.621508878600797843e+01
6.599434967524104856e+00,2.000000000000000000e+01
6.736224535617571618e+00,1.684063330253985669e+01
6.805573123025969728e+00,1.195270472824685015e+01
6.859520877203862277e+00,9.842751663782310700e+00
6.905355753706991173e+00,8.579227731725778128e+00
6.945946738534876097e+00,7.703502202554714628e+00
6.982749856187768778e+00,7.045828856689245079e+00
7.016632933270708250e+00,6.526012216895177964e+00
7.048560534182815474e+00,6.252704893197839731e+00
7.079226766183395192e+00,6.019613708176207112e+00
7.108808111331907043e+00,5.817476225682763236e+00
7.137442203532829765e+00,5.639801746931741633e+00
7.165238986524853360e+00,5.481880889886926234e+00
7.192288030079599714e+00,5.340197742636268785e+00
7.218663513892312089e+00,5.212063965203494575e+00
7.244427732167597611e+00,5.095381872139017609e+00
7.269633624964637164e+00,4.988485833386243407e+00
7.294326649046360522e+00,4.890033033038561960e+00
7.318546188345464110e+00,4.798926344321444937e+00
7.342326635990706230e+00,4.714258689970115768e+00
7.365698237195211107e+00,4.635272130174580951e+00
7.388687754855143730e+00,4.561327265435162204e+00
7.411319001577099108e+00,4.491880003634070917e+00
7.433613269605844565e+00,4.426463675868568259e+00
7.455589681682408099e+00,4.364675097872690479e+00
7.477265479936630932e+00,4.306163583132782691e+00
7.498656265689216838e+00,4.250622192585030490e+00
7.519776199974482545e+00,4.197780698960040802e+00
7.540638172344698908e+00,4.147399879808809864e+00
7.561253943843106562e+00,4.099266850331664713e+00
7.581634268773186136e+00,4.053191217377922762e+00
7.601788998933763253e+00,4.009001887434027189e+00
7.621727173253570520e+00,3.966544399529797094e+00
7.641457095188228799e+00,3.925678682522201868e+00
7.660986399796302138e+00,3.886277157783041503e+00
7.680322112059167594e+00,3.848223124770035142e+00
7.699470697729834612e+00,3.811409379620552595e+00
7.718438107772133350e+00,3.775737026726575962e+00
7.737229817271430221e+00,3.741114450923444412e+00
7.755850859551890686e+00,3.707456423964980097e+00
7.774305856116098923e+00,3.674683323743554553e+00
7.792599042925023589e+00,3.642720448530159860e+00
7.810734293455626975e+00,3.611497411571282345e+00
7.828715138906507498e+00,3.580947603849820915e+00
7.846544785866159444e+00,3.551007714821642125e+00
7.864226131711736123e+00,3.521617302574249209e+00
7.881761777966890037e+00,3.492718406194537994e+00
7.899154041814056448e+00,3.464255194237418234e+00
