Angle (rad),Angular Velocity (rad/s)
3.000423801480182728e+00,1.694349247712331752e-01
3.001692726359103780e+00,3.378975506404335860e-01
3.003799681838373203e+00,5.045057992234351918e-01
3.006733351732337578e+00,6.684582348368922622e-01
3.010478680915248617e+00,8.290652127703731500e-01
3.015017493962145245e+00,9.857711806799821508e-01
3.020329201442115252e+00,1.138167427553493649e+00
3.026391546910764507e+00,1.285995787737894913e+00
3.033181352671039388e+00,1.429144743349867852e+00
3.040675231145395951e+00,1.567639925636580056e+00
3.048850239305669785e+00,1.701631198577025605e+00
3.057684464342837583e+00,1.831378395637231593e+00
3.067157538430325570e+00,1.957237487036008305e+00
3.077251088424791448e+00,2.079648593444511917e+00
3.087949132558608589e+00,2.199126924443197240e+00
3.099238440898739011e+00,2.316257470179628797e+00
3.111108880125552645e+00,2.431694153319117646e+00
3.123553766739502802e+00,2.546164184493437066e+00
3.136570256995630412e+00,2.660478589865045596e+00
3.150159807761341302e+00,2.775550347144501551e+00
3.164328751525958161e+00,2.892422376018034758e+00
3.179089043091241518e+00,3.012308968313358815e+00
3.194459258480247588e+00,3.136656466053330927e+00
3.210465964240145187e+00,3.267232777710642466e+00
3.227145638326141874e+00,3.406261996461990460e+00
3.244547432605852766e+00,3.556632690792348672e+00
3.262737262805682104e+00,3.722232338095687876e+00
3.281804082024367020e+00,3.908509712832620941e+00
3.301869939323394565e+00,4.123476682302350760e+00
3.323107046634298012e+00,4.379627720948993996e+00
3.345768974616666114e+00,4.697985163612309556e+00
3.370253788471894385e+00,5.117809938430580630e+00
3.397252281267096219e+00,5.724830957772150342e+00
3.428191224070093135e+00,6.764199985203837251e+00
3.467439830193964845e+00,9.579449152731449146e+00
3.542550033540713184e+00,1.043529654241640259e+01
3.584075779347071222e+00,7.100202837738903483e+00
3.616144048493664442e+00,5.871930665948532635e+00
3.643653689836780174e+00,5.185329264591021392e+00
3.668372186263801016e+00,4.728878762045952477e+00
3.691147183923259689e+00,4.396917471932707322e+00
3.712468342308372193e+00,4.141823324563715936e+00
3.732650952723457927e+00,3.938374123617522038e+00
3.751913133321620020e+00,3.771727122893861583e+00
3.770413708935169694e+00,3.632470647639929773e+00
3.788272871135053954e+00,3.514294170945727380e+00
3.805584353322075231e+00,3.412778838996131103e+00
3.822423044499894562e+00,3.324721089411244446e+00
3.838849980245387261e+00,3.247731458871995436e+00
3.854915742258504086e+00,3.179984968882561436e+00
3.870662848868558381e+00,3.120059543834547089e+00
3.886127481828669517e+00,3.066827861635017083e+00
3.901340762741158930e+00,3.019382870312649736e+00
3.916329715596704730e+00,2.976985207340496764e+00
3.931118005407301386e+00,2.939025270716029592e+00
3.945726513831076421e+00,2.904995333313068695e+00
3.960173793966281774e+00,2.874468691622607430e+00
3.974476434129697644e+00,2.847083836985720318e+00
3.988649352084534083e+00,2.822532275130767765e+00
4.002706035427169518e+00,2.800549037294080446e+00
4.016814653649740663e+00,2.842472671266294881e+00
4.031126695552496919e+00,2.881955801372882320e+00
4.045630504414225115e+00,2.919214058476167661e+00
4.060315462066811598e+00,2.954447380719353866e+00
4.075171912707949318e+00,2.987840934565708206e+00
4.090191091443689864e+00,3.019566079452569163e+00
4.105365057694100095e+00,3.049781343824884861e+00
4.120686633457570913e+00,3.078633389334886505e+00
4.136149346331575494e+00,3.106257947018391086e+00
4.151747377120832638e+00,3.132780714657448673e+00
4.167475511820593503e+00,3.158318208635932045e+00
4.183329097737354729e+00,3.182978566660336739e+00
4.199304003497108972e+00,3.206862299976239505e+00
4.215396582688686777e+00,3.230062995343240040e+00
4.231603640894133100e+00,3.252667968183585501e+00
4.247922405867224249e+00,3.274758869107798898e+00
4.264350500633643293e+00,3.296412246535594726e+00
4.280885919300765785e+00,3.317700068443325545e+00
4.297527005380640475e+00,3.338690206435320107e+00
4.314272432445929617e+00,3.359446885398299276e+00
4.331121186954850266e+00,3.380031101988187903e+00
4.348072553097304116e+00,3.400501015141967009e+00
4.365126099530119319e+00,3.420912311722630772e+00
4.382281667884645238e+00,3.441318550307231661e+00
4.399539362944724807e+00,3.461771486027285238e+00
4.416899544407383971e+00,3.482321379275882034e+00
4.434362820152423446e+00,3.503017291013226675e+00
4.451930040960609958e+00,3.523907367337217877e+00
4.469602296633344629e+00,3.545039115942540064e+00
4.487380913479784184e+00,3.566459677074482748e+00
4.505267453150414880e+00,3.588216091596187152e+00
4.523263712809272086e+00,3.610355568834256790e+00
4.541371726650587526e+00,3.632925756951786767e+00
4.559593768779489409e+00,3.655975018726130621e+00
4.577932357491508952e+00,3.679552715784617956e+00
4.596390261001159772e+00,3.703709504586359724e+00
4.614970504687203601e+00,3.728497647737436527e+00
4.633676379940991907e+00,3.753971344604150051e+00
4.652511454725245521e+00,3.780187085657595425e+00
4.671479585974187998e+00,3.807204035560485256e+00
4.690584933992718142e+00,3.835084450715942062e+00
4.709831979042998107e+00,3.863894137865569789e+00
4.729225540342340217e+00,3.893702961385487438e+00
4.748770797737654981e+00,3.924585408228353778e+00
4.768473316370306136e+00,3.956621221053064463e+00
4.788339074702666842e+00,3.989896112043618270e+00
4.808374496345996896e+00,4.024502572337173234e+00
4.828586486211101203e+00,4.060540794977933743e+00
4.848982471601772204e+00,4.098119733043755986e+00
4.869570448990505618e+00,4.137358319259669237e+00
4.890359037361637462e+00,4.178386879285286071e+00
4.911357539185853938e+00,4.221348778297842053e+00
4.932576010310843806e+00,4.266402349966856633e+00
4.954025340327445903e+00,4.313723169075096564e+00
4.975717345314545348e+00,4.363506744762634781e+00
4.997664875299763665e+00,4.415971731865990790e+00
5.019881939324627673e+00,4.471363784774230687e+00
5.042420647529985978e+00,4.544935618011532341e+00
5.065339865969070487e+00,4.623652188631966808e+00
5.088666648132265102e+00,4.708058960645672641e+00
5.112430991779216782e+00,4.798791078484436312e+00
5.136666334648993804e+00,4.896593096412634516e+00
5.161410162213384112e+00,5.002344346300859890e+00
5.186704760411426918e+00,5.117091961303338543e+00
5.212598158453332076e+00,5.242094458946800373e+00
5.239145324444248075e+00,5.378880143411365111e+00
5.266409702783696467e+00,5.529326712117123677e+00
5.294465222075483091e+00,5.695771870450412777e+00
5.323398964239921760e+00,5.881170422125340913e+00
5.353314784879279919e+00,6.089323004844147569e+00
5.384338339706400411e+00,6.325218911658698318e+00
5.416624255838624613e+00,6.595567580958445753e+00
5.450366699005219751e+00,6.909656368279113892e+00
5.485815562978105575e+00,7.280803767183882336e+00
5.523302490133771059e+00,7.728973468340984532e+00
5.563285304474828052e+00,8.285847893570972289e+00
5.606430143087593798e+00,9.005710711772666244e+00
5.653780718435867492e+00,9.992255143980619536e+00
5.707167933665436621e+00,1.147984988968531361e+01
5.770507916056618392e+00,1.418640080003106618e+01
5.857518532307441461e+00,2.000000000000000000e+01
5.990215761444522613e+00,1.609702877090435891e+01
6.057924691709844822e+00,1.202135292982461223e+01
6.114931675961715385e+00,1.093972887768441637e+01
6.168338251944041950e+00,1.049218059159721328e+01
6.220391950060021991e+00,1.037349431306375180e+01
6.272472348634591022e+00,1.049680052630085925e+01
6.325756004072292882e+00,1.085997785637281687e+01
6.381585759658903179e+00,1.153552020684576895e+01
6.441978117941723703e+00,1.274439489027317052e+01
6.511082852979737545e+00,1.526055866563532604e+01
6.605576925483219952e+00,2.000000000000000000e+01
6.723771367172751923e+00,1.356233639341536090e+01
6.779731648732676419e+00,9.613934891228602453e+00
6.822984791324405940e+00,7.859988767172237267e+00
6.859424503643129611e+00,6.787536470182824466e+00
6.891378707580165575e+00,6.032276335154922009e+00
6.920043829624481724e+00,5.457052372791718398e+00
6.946138670942438864e+00,4.996394394603382416e+00
6.970137986351503834e+00,4.614310907568647480e+00
6.992376079137817335e+00,4.289051524677579330e+00
7.013099513992044898e+00,4.006543934818300734e+00
7.032907855723397716e+00,3.918050258892526561e+00
7.052291583868798952e+00,3.836506116829820012e+00
7.071282769878006746e+00,3.760880537622190101e+00
7.089908869321847718e+00,3.690348109996806514e+00
7.108193615286778844e+00,3.624238185357254949e+00
7.126157696861515234e+00,3.561998725635028507e+00
7.143819283139576370e+00,3.503170036459392733e+00
7.161194433979851226e+00,3.447365329792279720e+00
7.178297426301587514e+00,3.394256103229970734e+00
7.195141016390053323e+00,3.343560979685289425e+00
7.211736653041578293e+00,3.295037074714930014e+00
7.228094652458521452e+00,3.248473238137985497e+00
7.244224343038138336e+00,3.203684704602880018e+00
7.260134186214512120e+00,3.160508816602566551e+00
7.275831878067787528e+00,3.118801573207793609e+00
7.291324435349031852e+00,3.078434821290797707e+00
7.306618268772934854e+00,3.039293951563771579e+00
7.321719245829233280e+00,3.001275994855436391e+00
7.336632744904788339e+00,2.964288038387317137e+00
7.351363702154451119e+00,2.928245899906830818e+00
7.365916652283734045e+00,2.893073011127417882e+00
7.380295764190477392e+00,2.858699472235441519e+00
7.394504872242101179e+00,2.825061247113358931e+00
7.408547503829144176e+00,2.792099475017665089e+00
7.422426903726812242e+00,2.759759879186645559e+00
7.436146055708280578e+00,2.727992256565178852e+00
7.449707701782052105e+00,2.696750035763553210e+00
7.463114359367281736e+00,2.665989892694996310e+00
7.476368336673039572e+00,2.635671415197624601e+00
7.489471746507874172e+00,2.605756809443328326e+00
7.502426518713198433e+00,2.576210642146775420e+00
7.515234411386619406e+00,2.546999613572224153e+00
7.527897021038400638e+00,2.518092357140572446e+00
7.540415791804973011e+00,2.489459262099964931e+00
7.552792023827127998e+00,2.461072316268713589e+00
7.565026880886725813e+00,2.432904966311270734e+00
7.577121397384048329e+00,2.404931993384225919e+00
7.589076484727889316e+00,2.377129402303673977e+00
