Angle (rad),Angular Velocity (rad/s)
3.000423801480182728e+00,1.694349247712331752e-01
3.001692726359103780e+00,3.378975506404335860e-01
3.003799681838373203e+00,5.045057992234351918e-01
3.006733351732337578e+00,6.684582348368922622e-01
3.010478680915248617e+00,8.290652127703731500e-01
3.015017493962145245e+00,9.857711806799821508e-01
3.020329201442115252e+00,1.138167427553493649e+00
3.026391546910764507e+00,1.285995787737894913e+00
3.033181352671039388e+00,1.429144743349867852e+00
3.040675231145395951e+00,1.567639925636580056e+00
3.048850239305669785e+00,1.701631198577025605e+00
3.057684464342837583e+00,1.831378395637231593e+00
3.067157538430325570e+00,1.957237487036008305e+00
3.077251088424791448e+00,2.079648593444511917e+00
3.087949132558608589e+00,2.199126924443197240e+00
3.099238440898739011e+00,2.316257470179628797e+00
3.111108880125552645e+00,2.431694153319117646e+00
3.123553766739502802e+00,2.546164184493437066e+00
3.136570256995630412e+00,2.660478589865045596e+00
3.150159807761341302e+00,2.775550347144501551e+00
3.164328751525958161e+00,2.892422376018034758e+00
3.179089043091241518e+00,3.012308968313358815e+00
3.194459258480247588e+00,3.136656466053330927e+00
3.210465964240145187e+00,3.267232777710642466e+00
3.227145638326141874e+00,3.406261996461990460e+00
3.244547432605852766e+00,3.556632690792348672e+00
3.262737262805682104e+00,3.722232338095687876e+00
3.281804082024367020e+00,3.908509712832620941e+00
3.301869939323394565e+00,4.123476682302350760e+00
3.323107046634298012e+00,4.379627720948993996e+00
3.345768974616666114e+00,4.697985163612309556e+00
3.370253788471894385e+00,5.117809938430580630e+00
3.397252281267096219e+00,5.724830957772150342e+00
3.428191224070093135e+00,6.764199985203837251e+00
3.467439830193964845e+00,9.579449152731449146e+00
3.537949937226455788e+00,1.033536013066433945e+01
3.578324093057411837e+00,6.809680551940880733e+00
3.608988643171573862e+00,5.602302630450329168e+00
3.635202396279221482e+00,4.935888818269335232e+00
3.658715368784204447e+00,4.495483138040786919e+00
3.679989084314468695e+00,4.036280290660481995e+00
3.699574198802735747e+00,3.806856970872152690e+00
3.718133598520722671e+00,3.623276360533032037e+00
3.735861506780099983e+00,3.472571070946483207e+00
3.752900141611879015e+00,3.346451855667211817e+00
3.769357591294496768e+00,3.239325858219841869e+00
3.785318437407726222e+00,3.147257043421730849e+00
3.800850442162473364e+00,3.067380045439369596e+00
3.816008955674429881e+00,2.997550185881030949e+00
3.830839931338259063e+00,2.936124527745159085e+00
3.845382054183165366e+00,2.881819491782398934e+00
3.859668283270692335e+00,2.833615180848219950e+00
3.873726995014173280e+00,2.790689261998574811e+00
3.887582847463728619e+00,2.752370151454686109e+00
3.901257444981938605e+00,2.718103155089230061e+00
3.914769857233792116e+00,2.687425515589081382e+00
3.928137029942041281e+00,2.659947714284542464e+00
3.941374113948345581e+00,2.635339249269221806e+00
3.954494731730511692e+00,2.613317671980569301e+00
3.967511195419602288e+00,2.593640032391038464e+00
3.980434686767908570e+00,2.576096129552607028e+00
3.993275406949469364e+00,2.560503132595246978e+00
4.006042702209925643e+00,2.546701254190387509e+00
4.018899714301815251e+00,2.595648630580555061e+00
4.031772711274652643e+00,2.554155212248407469e+00
4.044660059162469956e+00,2.600382883526457523e+00
4.057772673403438723e+00,2.644290264887390940e+00
4.071099373509031061e+00,2.686044392419315141e+00
4.084629793829685163e+00,2.725804147845461767e+00
4.098354342644609183e+00,2.763720227599482548e+00
4.112264161434225684e+00,2.799935241189175361e+00
4.126351084902301736e+00,2.834583908040656741e+00
4.140607602174504187e+00,2.867793327399705383e+00
4.155026819485041933e+00,2.899683300567952315e+00
4.169602424569809784e+00,2.930366688790346785e+00
4.184328652909838908e+00,2.959949793533828366e+00
4.199200255909934398e+00,2.988532748765837521e+00
4.214212471051578923e+00,3.016209917220829873e+00
4.229360994024165876e+00,3.043070284598803799e+00
4.244641952812467700e+00,3.069197847234052645e+00
4.260051883699282449e+00,3.094671990061572231e+00
4.275587709129014868e+00,3.119567852743379444e+00
4.291246717369407548e+00,3.143956682641683376e+00
4.307026543903760718e+00,3.167906173978499051e+00
4.322925154484019927e+00,3.191480793034464192e+00
4.338940829775413732e+00,3.214742089640767908e+00
4.355072151525406277e+00,3.237748995530288276e+00
4.371317990193197112e+00,3.260558110356526651e+00
4.387677493980529420e+00,3.283223976377771081e+00
4.404150079209940394e+00,3.305799342952470798e+00
4.420672875854454453e+00,3.303635662534690987e+00
4.437248113032603136e+00,3.326461504706196504e+00
4.453937554386315334e+00,3.349325409966151579e+00
4.470741510751709669e+00,3.372275466702650881e+00
4.487660531798282726e+00,3.395359157780920789e+00
4.504695403569416001e+00,3.418623587765434735e+00
4.521847147160041658e+00,3.442115710854511068e+00
4.539117018539511328e+00,3.465882561338619716e+00
4.556506509537110006e+00,3.489971488538913036e+00
4.574017350017840045e+00,3.514430398353813434e+00
4.591651511287320631e+00,3.539308003745000430e+00
4.609411210776682033e+00,3.564654086738418215e+00
4.627298918072244582e+00,3.590519774806604669e+00
4.645317362369639547e+00,3.616957834850286435e+00
4.663469541449329903e+00,3.644022988417674913e+00
4.681758732289837965e+00,3.671772252307075046e+00
4.700188503457209066e+00,3.700265309309425987e+00
4.718762729434816450e+00,3.729564914585266511e+00
4.737485607087229766e+00,3.759737344063708964e+00
4.756361674486447200e+00,3.790852892334879432e+00
4.775395832369325078e+00,3.822986428826829819e+00
4.794593368542899192e+00,3.856218022670119261e+00
4.813959985611067083e+00,3.890633648630818175e+00
4.833501832463904080e+00,3.926325988928971888e+00
4.853225540052210185e+00,3.963395348775282212e+00
4.873138262068115623e+00,4.001950707210908398e+00
4.893247721271758444e+00,4.042110929529458829e+00
4.913562262349666199e+00,4.084006173467798817e+00
4.934090912369344828e+00,4.127779528833969813e+00
4.954843450115800074e+00,4.173588939779760310e+00
4.975830485871085784e+00,4.221609471176161144e+00
4.997063553543169334e+00,4.272035996403885427e+00
5.018555217486356135e+00,4.325086404557297648e+00
5.040355763309333881e+00,4.395879385215199164e+00
5.062521852041958148e+00,4.471378913855583725e+00
5.085078202834938388e+00,4.552071229727337354e+00
5.108052152681974434e+00,4.638519647288875447e+00
5.131474081097738171e+00,4.731380924196470161e+00
5.155377927353013590e+00,4.831426132381007044e+00
5.179801826432430367e+00,4.939567580450527906e+00
5.204788899142314129e+00,5.056893987342172103e+00
5.230388245080243692e+00,5.184717089550827218e+00
5.256656206594414016e+00,5.324634377613756797e+00
5.283658000845160352e+00,5.478615045658522753e+00
5.311469861380973434e+00,5.649120109592136174e+00
5.340181900177600305e+00,5.839274121130752171e+00
5.369902013595731383e+00,6.053117104611652088e+00
5.400761344191865376e+00,6.295985515978602010e+00
5.432922139097073888e+00,6.575109086002497882e+00
5.466589447151627645e+00,6.900586276517071127e+00
5.502029261784630698e+00,7.287062573365610696e+00
5.539598134669716956e+00,7.756808432652804619e+00
5.579794761233643818e+00,8.345844971011798563e+00
5.623357921412727833e+00,9.117537533521472781e+00
5.671476197259627483e+00,1.019776789364840752e+01
5.726327020400892920e+00,1.189031984663040653e+01
5.792993550965812588e+00,1.526446655362598470e+01
5.898615955339767680e+00,2.000000000000000000e+01
5.994260446376588725e+00,1.168122297005933774e+01
6.045202717589555519e+00,9.148115082977106738e+00
6.089136944616819314e+00,8.509197821541681250e+00
6.130860351184723278e+00,8.220032548638743108e+00
6.171647845856855774e+00,8.120052209674950561e+00
6.212278359453038412e+00,8.151712868509148890e+00
6.253351414004613140e+00,8.295923556369887208e+00
6.295429026384040228e+00,8.555656789421281161e+00
6.339139091835450657e+00,8.955068273955358649e+00
6.385304256179649585e+00,9.551350351434184205e+00
6.435188310552662827e+00,1.047507101140453756e+01
6.491155691667793270e+00,1.208404355416519671e+01
6.559468913880493801e+00,1.599143142695703901e+01
6.693758175902207341e+00,2.000000000000000000e+01
6.766661118133239228e+00,1.171153482957208780e+01
6.818228566855301764e+00,9.225059177497733742e+00
6.860673748446644460e+00,7.859733613202823044e+00
6.897563625065713744e+00,6.948294337952001243e+00
6.930551072936398604e+00,6.276893570678352852e+00
6.960574126882550061e+00,5.751785084746655841e+00
6.988230267041855903e+00,5.324116943117152445e+00
7.013929729138886238e+00,4.965442367220634701e+00
7.038375078973557741e+00,4.815702330238852191e+00
7.062113764202853083e+00,4.682203921490201814e+00
7.085219177856654227e+00,4.561965011558450911e+00
7.107751722225475355e+00,4.452727592922950173e+00
7.129761856517855989e+00,4.352743959300680920e+00
7.151292272404289108e+00,4.260635684796404199e+00
7.172379485872247606e+00,4.175297725441924790e+00
7.193055027086267650e+00,4.095831461681336272e+00
7.213346346441904977e+00,4.021496860610008106e+00
7.233277515864305229e+00,3.951677600403499913e+00
7.252869779531541994e+00,3.885855184986389599e+00
7.272141991967589369e+00,3.823589421627726193e+00
7.291110970595755525e+00,3.764503484261331412e+00
7.309791782430745677e+00,3.708272336021676274e+00
7.328197979427368836e+00,3.654613649094918593e+00
7.346341793349146165e+00,3.603280606197210911e+00
7.364234298390542222e+00,3.554056137258436721e+00
7.381885547867385711e+00,3.506748263172057012e+00
7.399304689870823459e+00,3.461186302372844636e+00
7.416500065717910317e+00,3.417217756341534685e+00
7.433479294227986145e+00,3.374705734080942321e+00
7.450249344239196603e+00,3.333526807993044461e+00
7.466816597304892333e+00,3.293569217713743669e+00
7.483186902139931540e+00,3.254731356620554017e+00
7.499365622096519246e+00,3.216920489524935700e+00
7.515357676719376379e+00,3.180051660636669997e+00
7.531167578246759753e+00,3.144046759062156138e+00
7.546799463776738826e+00,3.108833715466541303e+00
7.562257123699274608e+00,3.074345808527130242e+00
7.577544026898034524e+00,3.040521063754804132e+00
7.592663343146917931e+00,3.007301730401752415e+00
7.607617963061366062e+00,2.974633824688494244e+00
7.622410515910938322e+00,2.942466729607969178e+00
