Angle (rad),Angular Velocity (rad/s)
3.000423801480182728e+00,1.694349247712331752e-01
3.001692726359103780e+00,3.378975506404335860e-01
3.003799681838373203e+00,5.045057992234351918e-01
3.006733351732337578e+00,6.684582348368922622e-01
3.010478680915248617e+00,8.290652127703731500e-01
3.015017493962145245e+00,9.857711806799821508e-01
3.020329201442115252e+00,1.138167427553493649e+00
3.026391546910764507e+00,1.285995787737894913e+00
3.033181352671039388e+00,1.429144743349867852e+00
3.040675231145395951e+00,1.567639925636580056e+00
3.048850239305669785e+00,1.701631198577025605e+00
3.057684464342837583e+00,1.831378395637231593e+00
3.067157538430325570e+00,1.957237487036008305e+00
3.077251088424791448e+00,2.079648593444511917e+00
3.087949132558608589e+00,2.199126924443197240e+00
3.099238440898739011e+00,2.316257470179628797e+00
3.111108880125552645e+00,2.431694153319117646e+00
3.123553766739502802e+00,2.546164184493437066e+00
3.136570256995630412e+00,2.660478589865045596e+00
3.150159807761341302e+00,2.775550347144501551e+00
3.164328751525958161e+00,2.892422376018034758e+00
3.179089043091241518e+00,3.012308968313358815e+00
3.194459258480247588e+00,3.136656466053330927e+00
3.210465964240145187e+00,3.267232777710642466e+00
3.227145638326141874e+00,3.406261996461990460e+00
3.244547432605852766e+00,3.556632690792348672e+00
3.262737262805682104e+00,3.722232338095687876e+00
3.281804082024367020e+00,3.908509712832620941e+00
3.301869939323394565e+00,4.123476682302350760e+00
3.323107046634298012e+00,4.379627720948993996e+00
3.345768974616666114e+00,4.697985163612309556e+00
3.370253788471894385e+00,5.117809938430580630e+00
3.397252281267096219e+00,5.724830957772150342e+00
3.428191224070093135e+00,6.764199985203837251e+00
3.467439830193964845e+00,9.579449152731449146e+00
3.542550033540713184e+00,1.043529654241640259e+01
3.584075779347071222e+00,7.100202837738903483e+00
3.616144048493664442e+00,5.871930665948532635e+00
3.643653689836780174e+00,5.185329264591021392e+00
3.668372186263801016e+00,4.728878762045952477e+00
3.691147183923259689e+00,4.396917471932707322e+00
3.712468342308372193e+00,4.141823324563715936e+00
3.732650952723457927e+00,3.938374123617522038e+00
3.751913133321620020e+00,3.771727122893861583e+00
3.770413708935169694e+00,3.632470647639929773e+00
3.788272871135053954e+00,3.514294170945727380e+00
3.805584353322075231e+00,3.412778838996131103e+00
3.822423044499894562e+00,3.324721089411244446e+00
3.838849980245387261e+00,3.247731458871995436e+00
3.854915742258504086e+00,3.179984968882561436e+00
3.870662848868558381e+00,3.120059543834547089e+00
3.886127481828669517e+00,3.066827861635017083e+00
3.901340762741158930e+00,3.019382870312649736e+00
3.916329715596704730e+00,2.976985207340496764e+00
3.931118005407301386e+00,2.939025270716029592e+00
3.945726513831076421e+00,2.904995333313068695e+00
3.960331579960911341e+00,2.936666856425597327e+00
3.974939874183217370e+00,2.907183126476433177e+00
3.989408465439340912e+00,2.880733542542786907e+00
4.003751780743518118e+00,2.857027974352272182e+00
4.018034669657166269e+00,2.856256590409080420e+00
4.032315600584463589e+00,2.856237758695987061e+00
4.046598235531012833e+00,2.856932064856488207e+00
4.060886052170501692e+00,2.858305078832188872e+00
4.075182367184869037e+00,2.860326740295967340e+00
4.089490356784312830e+00,2.862970841949139977e+00
4.103813074851752951e+00,2.866214593446450909e+00
4.118153469079175011e+00,2.870038252173170878e+00
4.132514395401433838e+00,2.874424809797531566e+00
4.146898630983219647e+00,2.879359725642300027e+00
4.161308885974465355e+00,2.884830699597262793e+00
4.175747814216546949e+00,2.890827478631199376e+00
4.190218023054709917e+00,2.897341692033986504e+00
4.204722082390025761e+00,2.904366711384874566e+00
4.219262533086006073e+00,2.911897531946077144e+00
4.233841894829958541e+00,2.919930672755825185e+00
4.248462673536779199e+00,2.928464093168519078e+00
4.263127368372616743e+00,2.937497123982275138e+00
4.277838478467390182e+00,2.947030411622327151e+00
4.292598509378198202e+00,2.957065874125359706e+00
4.307358192504983307e+00,2.947111753184080474e+00
4.322121916416469922e+00,2.958459682036604921e+00
4.336943613630998229e+00,2.970302231209460686e+00
4.351825775527332851e+00,2.982646896876804288e+00
4.366770933754186679e+00,2.995502292980034564e+00
4.381781665857276131e+00,3.008878167750299149e+00
4.396860601007528402e+00,3.022785427651913714e+00
4.412010425867697094e+00,3.037236168824863913e+00
4.427233890635290159e+00,3.052243716202720059e+00
4.442533815300824251e+00,3.067822670581449085e+00
4.457913096162068101e+00,3.083988964016884715e+00
4.473374712637084194e+00,3.100759924036255555e+00
4.488921734421583487e+00,3.118154347264472381e+00
4.504557329039440283e+00,3.136192583191364402e+00
4.520284769839163275e+00,3.154896628944503068e+00
4.536107444493832297e+00,3.174290236086833694e+00
4.552028864067535707e+00,3.194399030632645964e+00
4.568052672717782592e+00,3.215250647673713935e+00
4.584182658110900199e+00,3.236874882234686446e+00
4.600422762636132923e+00,3.259303858238956852e+00
4.616777095514337681e+00,3.282572217770393763e+00
4.633249945908930911e+00,3.306717333171074635e+00
4.649836470807616529e+00,3.328191995627242328e+00
4.666542097016719737e+00,3.354221814559262160e+00
4.683380362319750745e+00,3.381255781762980916e+00
4.700356412988006660e+00,3.409344782155280917e+00
4.717475660139764493e+00,3.438543936918831534e+00
4.734743801974388155e+00,3.468913033499259502e+00
4.752166848296396573e+00,3.500517012978036746e+00
4.769751147638396915e+00,3.533426523887959192e+00
4.787494063230241181e+00,3.563798637815355441e+00
4.805401790286376595e+00,3.599543281439746334e+00
4.823492085466942747e+00,3.636841871170805707e+00
4.841772965839526321e+00,3.675794894791841738e+00
4.860252975154340405e+00,3.716512733175656891e+00
4.878941236395473169e+00,3.759116926054355101e+00
4.897847511162193967e+00,3.803741644421302581e+00
4.916982267012572017e+00,3.850535410642504708e+00
4.936356754130483360e+00,3.899663117120739209e+00
4.955983092961228742e+00,3.951308406845680299e+00
4.975874374816156909e+00,4.005676495257231018e+00
4.996044777893779987e+00,4.062997533753757828e+00
5.016509701731856730e+00,4.123530642562084125e+00
5.037249703163355186e+00,4.172846657684529781e+00
5.058242110595712049e+00,4.224528862705191123e+00
5.079499313747659173e+00,4.278805202216806158e+00
5.101034912398128007e+00,4.335932543528167038e+00
5.122863873653713540e+00,4.396201913974353559e+00
5.145002718269630293e+00,4.459944933891592633e+00
5.167469742812643929e+00,4.527541785771573402e+00
5.190285286434238365e+00,4.599431177577350205e+00
5.213472053702470355e+00,4.676122924017301230e+00
5.237041289867529592e+00,4.752424442360531742e+00
5.261020690147531376e+00,4.840413823710512098e+00
5.285456942271071767e+00,4.935317318415659571e+00
5.310387050412482601e+00,5.038140261154778976e+00
5.335853567535292719e+00,5.150106169818904789e+00
5.361905842982785941e+00,5.272723018309845244e+00
5.388601663553000520e+00,5.407876137657142479e+00
5.416009452820094161e+00,5.557961497897340841e+00
5.444211282501055571e+00,5.726082083258061672e+00
5.473307099671887777e+00,5.916346319722853409e+00
5.503420837340771143e+00,6.134338401836048504e+00
5.534709561163978719e+00,6.387892506922302260e+00
5.567377756120357901e+00,6.688436562264354457e+00
5.601700850949097976e+00,7.053483789995127040e+00
5.638066662809341878e+00,7.511661531761514965e+00
5.677055286000577183e+00,8.114082840706293709e+00
5.719613872696307943e+00,8.964572262290463556e+00
5.767521280087352764e+00,1.032320124561989871e+01
5.825152939870791968e+00,1.318351519019488549e+01
5.933328810805597264e+00,2.000000000000000000e+01
5.995892301349668330e+00,1.000287526549254302e+01
6.041862847726412689e+00,8.624381216542726492e+00
6.080757341311357145e+00,7.068295515326854073e+00
6.113405633313849563e+00,6.047361480861754401e+00
6.141636228530873431e+00,5.274331327478297915e+00
6.166374382541364163e+00,4.638239187685081255e+00
6.188155809304549670e+00,4.085192255278476736e+00
6.207314060037062653e+00,3.585166685315797519e+00
6.224065002139783864e+00,3.119862969952279741e+00
6.238550622151391778e+00,2.677444509507087123e+00
6.250864223205239156e+00,2.249973981040993110e+00
6.261066170754606475e+00,1.832045681348223765e+00
6.269194405615921895e+00,1.419993469868952030e+00
6.275271802603803906e+00,1.011388726560347839e+00
6.279311429103222153e+00,6.046856269538867235e-01
6.283199052014955654e+00,9.504787117552847553e-01
6.286939012540054605e+00,5.456517856427300917e-01
6.288656569517477202e+00,1.414349981533132850e-01
6.288353740034090755e+00,-2.625526056239327888e-01
6.286030932517604697e+00,-6.666117203289547710e-01
6.281686775706373460e+00,-1.071191716176462805e+00
6.275316800080191548e+00,-1.477121430225370791e+00
6.266910946497125323e+00,-1.885849434653754653e+00
6.258335997711096610e+00,-1.544296953885618162e+00
6.249575628118534176e+00,-1.960849911074542318e+00
6.238714671726880212e+00,-2.385146635080754862e+00
6.225703853337173577e+00,-2.821696715349821361e+00
6.210466442908410656e+00,-3.277105899901767483e+00
6.192885361382757026e+00,-3.761137138629122134e+00
6.172783115722467073e+00,-4.288620405867781926e+00
6.149888203867210024e+00,-4.883201548289368255e+00
6.123773425338928433e+00,-5.585510308031019555e+00
6.095439019156337679e+00,-5.762842816409564861e+00
6.064035220037983009e+00,-6.863640137121065798e+00
6.025771000981873016e+00,-8.610846816917893776e+00
5.974211381354329831e+00,-1.293155708606499132e+01
5.863480243415701842e+00,-1.803225109153886763e+01
5.792458752042761283e+00,-1.205469639352174305e+01
5.737898014743130659e+00,-1.001501784722066546e+01
5.690875944888823312e+00,-8.881847730952062037e+00
5.648466066709939781e+00,-8.125686887000572511e+00
5.609287787669926750e+00,-7.571081286368542607e+00
5.572650473080043021e+00,-7.102096608659236310e+00
5.538029980615863934e+00,-6.757319432696259121e+00
5.504981627648665388e+00,-6.470206144581439389e+00
5.473256787300370796e+00,-6.225929341108132675e+00
5.442667637920084900e+00,-6.014566843338612578e+00
5.413067927942712743e+00,-5.829181125995439139e+00
5.384340975346565195e+00,-5.664747978205975976e+00
5.356391817170991665e+00,-5.517522439461858497e+00
5.329265140966393588e+00,-5.336422371922604491e+00
5.303054327392057843e+00,-5.151115248948267222e+00
5.277724487207305692e+00,-4.983532954627169609e+00
5.253177792801541734e+00,-4.837341960422322451e+00
5.229315665622419118e+00,-4.709301261146594975e+00
5.205956575228221084e+00,-4.635141780174778070e+00
5.182982554367896455e+00,-4.555357707795104183e+00
5.160418712744755609e+00,-4.471129650631608499e+00
5.138206106167298337e+00,-4.414407157600837905e+00
5.116395425511303330e+00,-4.311093108336244484e+00
5.095025144952439966e+00,-4.237762934552960381e+00
