Angle (rad),Angular Velocity (rad/s)
3.000423801480182728e+00,1.694349247712331752e-01
3.001692726359103780e+00,3.378975506404335860e-01
3.003799681838373203e+00,5.045057992234351918e-01
3.006733351732337578e+00,6.684582348368922622e-01
3.010478680915248617e+00,8.290652127703731500e-01
3.015017493962145245e+00,9.857711806799821508e-01
3.020329201442115252e+00,1.138167427553493649e+00
3.026391546910764507e+00,1.285995787737894913e+00
3.033181352671039388e+00,1.429144743349867852e+00
3.040675231145395951e+00,1.567639925636580056e+00
3.048850239305669785e+00,1.701631198577025605e+00
3.057684464342837583e+00,1.831378395637231593e+00
3.067157538430325570e+00,1.957237487036008305e+00
3.077251088424791448e+00,2.079648593444511917e+00
3.087949132558608589e+00,2.199126924443197240e+00
3.099238440898739011e+00,2.316257470179628797e+00
3.111108880125552645e+00,2.431694153319117646e+00
3.123553766739502802e+00,2.546164184493437066e+00
3.136570256995630412e+00,2.660478589865045596e+00
3.150159807761341302e+00,2.775550347144501551e+00
3.164328751525958161e+00,2.892422376018034758e+00
3.179089043091241518e+00,3.012308968313358815e+00
3.194459258480247588e+00,3.136656466053330927e+00
3.210465964240145187e+00,3.267232777710642466e+00
3.227145638326141874e+00,3.406261996461990460e+00
3.244547432605852766e+00,3.556632690792348672e+00
3.262737262805682104e+00,3.722232338095687876e+00
3.281804082024367020e+00,3.908509712832620941e+00
3.301869939323394565e+00,4.123476682302350760e+00
3.323107046634298012e+00,4.379627720948993996e+00
3.345768974616666114e+00,4.697985163612309556e+00
3.370253788471894385e+00,5.117809938430580630e+00
3.397252281267096219e+00,5.724830957772150342e+00
3.428191224070093135e+00,6.764199985203837251e+00
3.467439830193964845e+00,9.579449152731449146e+00
3.542550033540713184e+00,1.043529654241640259e+01
3.584075779347071222e+00,7.100202837738903483e+00
3.616144048493664442e+00,5.871930665948532635e+00
3.643653689836780174e+00,5.185329264591021392e+00
3.668372186263801016e+00,4.728878762045952477e+00
3.691147183923259689e+00,4.396917471932707322e+00
3.712468342308372193e+00,4.141823324563715936e+00
3.732650952723457927e+00,3.938374123617522038e+00
3.751913133321620020e+00,3.771727122893861583e+00
3.770413708935169694e+00,3.632470647639929773e+00
3.788272871135053954e+00,3.514294170945727380e+00
3.805584353322075231e+00,3.412778838996131103e+00
3.822423044499894562e+00,3.324721089411244446e+00
3.838849980245387261e+00,3.247731458871995436e+00
3.854915742258504086e+00,3.179984968882561436e+00
3.870662848868558381e+00,3.120059543834547089e+00
3.886127481828669517e+00,3.066827861635017083e+00
3.901340762741158930e+00,3.019382870312649736e+00
3.916329715596704730e+00,2.976985207340496764e+00
3.931118005407301386e+00,2.939025270716029592e+00
3.945726513831076421e+00,2.904995333313068695e+00
3.960173793966281774e+00,2.874468691622607430e+00
3.974476434129697644e+00,2.847083836985720318e+00
3.988649352084534083e+00,2.822532275130767765e+00
4.002706035427169518e+00,2.800549037294080446e+00
4.016528777783929804e+00,2.729572414263111924e+00
4.030011447684027637e+00,2.664412225630703901e+00
4.043181593644249006e+00,2.604471093510205115e+00
4.056064002963636561e+00,2.549238939761783396e+00
4.068681097114242640e+00,2.498277190165404171e+00
4.081053257004873203e+00,2.451206358442834965e+00
4.093199092841611986e+00,2.407696184566453290e+00
4.105291497444907733e+00,2.429183385062471778e+00
4.117340140649391245e+00,2.390779545877536716e+00
4.129204157371643369e+00,2.355295304911195764e+00
4.140897605205473120e+00,2.322518755613705466e+00
4.152433542923466447e+00,2.292261683320699461e+00
4.163824140562791598e+00,2.264356314957457705e+00
4.175080774646922954e+00,2.238652604663761814e+00
4.186214110959019408e+00,2.215015953905833168e+00
4.197234176831998731e+00,2.193325286248924311e+00
4.208150424564350622e+00,2.173471413489667103e+00
4.218971787287435049e+00,2.155355642593498544e+00
4.229733106778643226e+00,2.149357145947587977e+00
4.240441669292041915e+00,2.134324928121984488e+00
4.251078866293052094e+00,2.120799074399841277e+00
4.261652057031561469e+00,2.108711619584038299e+00
4.272202846772608531e+00,2.111723837892698796e+00
4.282737061816076718e+00,2.102180201206575560e+00
4.293226786509112713e+00,2.093919352290633640e+00
4.303699114100914436e+00,2.095151146384715446e+00
4.314219855008820659e+00,2.113159243841550960e+00
4.324772679111103635e+00,2.108164271069695506e+00
4.335303405689651335e+00,2.104314194309976127e+00
4.345889858123102023e+00,2.130227187832276936e+00
4.356613994210389862e+00,2.159363909318134489e+00
4.367407564343543491e+00,2.158245701941534644e+00
4.378198244053821853e+00,2.158203282897812603e+00
4.388991347725444747e+00,2.159211283584037577e+00
4.399792069572437292e+00,2.161246976719959800e+00
4.410605496446427409e+00,2.164290120396796802e+00
4.421436619916492283e+00,2.168322822495180713e+00
4.432290347717854573e+00,2.173329423503806979e+00
4.443171514657145771e+00,2.179296396072922803e+00
4.454084893054298888e+00,2.186212259899577237e+00
4.465035202794710223e+00,2.194067510771640528e+00
4.476027121059956038e+00,2.202854562800987015e+00
4.487065291800975686e+00,2.212567703057946034e+00
4.498154335014096894e+00,2.223203057983495601e+00
4.509298855877548640e+00,2.234758571106438829e+00
4.520503453804107785e+00,2.247233991733244451e+00
4.531772731464177362e+00,2.260630874411346802e+00
4.543111303832948700e+00,2.274952589095172062e+00
4.554523807315232986e+00,2.290204342070604859e+00
4.566014909002172217e+00,2.306393207820484736e+00
4.577589316115246554e+00,2.323528172143578985e+00
4.589251785694919761e+00,2.341620186974818996e+00
4.601022367156943460e+00,2.366669204399316939e+00
4.612905375850691492e+00,2.386700612756586182e+00
4.624891051698377886e+00,2.407739147201902963e+00
4.636984478523767272e+00,2.429804484249487029e+00
4.649195363407892856e+00,2.454673693733902429e+00
4.661528742428066252e+00,2.478859312050888608e+00
4.673985794166879870e+00,2.504147612113314381e+00
4.686572107015078537e+00,2.530569097398407852e+00
4.699293429723526927e+00,2.558157445932525142e+00
4.712155687861623754e+00,2.586949749439737545e+00
4.725165001547662946e+00,2.616986783589629439e+00
4.738327704616448699e+00,2.648313313379637268e+00
4.751650365411348886e+00,2.680978438378807560e+00
4.765139809413584615e+00,2.715035983380602591e+00
4.778803143951678045e+00,2.750544940990979015e+00
4.792647785269442906e+00,2.787569973850035687e+00
4.806661694682144770e+00,2.818039460516606809e+00
4.820851803318071838e+00,2.858286894514265430e+00
4.835218501203603303e+00,2.888430565934728911e+00
4.849733793403772530e+00,2.917708886668357593e+00
4.864435557285556655e+00,2.963323346991482143e+00
4.879367001113235958e+00,3.009576405035008229e+00
4.894538373153547894e+00,3.059339687761529536e+00
4.909964186964745458e+00,3.111376840023075463e+00
4.925656180400133088e+00,3.165837850552300825e+00
4.941583405225247638e+00,3.205241223230220093e+00
4.957700112785239810e+00,3.241586482098022248e+00
4.974062707290183738e+00,3.303954959583303541e+00
4.990744892622783091e+00,3.369462496979318544e+00
5.007762983267359580e+00,3.438361699109815373e+00
5.025134634544696333e+00,3.510937095060893576e+00
5.042879015016301203e+00,3.587510417390819661e+00
5.061017007976333026e+00,3.668447000457424778e+00
5.079571448325363114e+00,3.754163590395669825e+00
5.098567402801572612e+00,3.845137951574967961e+00
5.118032503769194719e+00,3.941920781227794102e+00
5.137997349739205077e+00,4.045150620547209641e+00
5.158495989825495620e+00,4.155572699826532990e+00
5.179566514866039917e+00,4.274063012392051775e+00
5.201251785629822599e+00,4.401659432345322642e+00
5.223600339405118476e+00,4.539602462742327482e+00
5.246667531910555127e+00,4.689389368205189257e+00
5.270516994418683154e+00,4.852847251437161447e+00
5.295222520371653196e+00,5.032233494985812960e+00
5.320870548561582147e+00,5.230376652896435274e+00
5.347563493229570142e+00,5.450878716404361057e+00
5.375424306955428833e+00,5.698413334545666231e+00
5.404602890748358313e+00,5.979179357521216431e+00
5.435285367521808020e+00,6.301616263755263958e+00
5.467707976996454278e+00,6.677583116530642293e+00
5.502178803045743472e+00,7.124407777643259720e+00
5.539113603396656593e+00,7.668694092836625842e+00
5.579099064886004378e+00,8.354029083219078444e+00
5.623015124721620239e+00,9.258493384308867036e+00
5.672304040890375099e+00,1.054158188591983070e+01
5.729693292182449937e+00,1.260749002236997818e+01
5.802016263534931717e+00,1.705470727452158997e+01
5.953470413738488176e+00,2.000000000000000000e+01
6.029131160043379900e+00,1.291812724440635129e+01
6.089351117935587254e+00,1.143068168648697913e+01
6.144914702571539600e+00,1.088586730292221283e+01
6.198876832344720533e+00,1.075093656432405709e+01
6.252877160888638208e+00,1.089126696124075799e+01
6.308218229866422000e+00,1.129140788528516737e+01
6.366334637044177569e+00,1.202200781669154672e+01
6.429344718157928185e+00,1.331000616848825935e+01
6.501555893040103840e+00,1.594647570814258231e+01
6.599603560848700035e+00,2.000000000000000000e+01
6.719324996848135889e+00,1.338583831621330589e+01
6.773728498202165049e+00,9.246741523706305088e+00
6.814941375243803279e+00,7.419223404445981274e+00
6.849057141609023347e+00,6.301172630264725072e+00
6.878487708472333040e+00,5.510257834750843742e+00
6.904983049243216264e+00,5.103224632085225920e+00
6.929906953481112630e+00,4.873092546766160105e+00
6.953308479739937376e+00,4.498489871550063413e+00
6.974828533619834126e+00,4.119332970783252890e+00
6.994922675853766592e+00,3.922435646354379468e+00
7.013956857607813511e+00,3.695716162576528241e+00
7.032248961598187798e+00,3.622029413369846296e+00
7.050108857898407244e+00,3.523308558819813641e+00
7.067387101487168977e+00,3.389952661586834726e+00
7.084161407134293320e+00,3.320512293919953617e+00
7.100567386568816808e+00,3.242738265190402203e+00
7.116326450370864976e+00,3.063289725777671002e+00
7.131364938879977800e+00,2.953349670676947536e+00
7.145898682900865495e+00,2.861090661107890121e+00
7.160113905087932551e+00,2.825170447495211068e+00
7.173856041927202831e+00,2.673288977944193956e+00
7.187121514836038116e+00,2.633117114489937460e+00
7.199985629289182398e+00,2.513624995118074246e+00
7.212420226000167744e+00,2.460555004511497224e+00
7.224615335386653570e+00,2.417715434313619127e+00
7.236679997277677856e+00,2.408039768407236103e+00
7.248442924675743804e+00,2.297992559396424994e+00
7.259705434541036340e+00,2.207649115339997525e+00
7.270561574772864688e+00,2.135260602379394967e+00
7.281097287132111795e+00,2.079323858622531773e+00
7.291391487960973805e+00,2.038524677386681194e+00
