Angle (rad),Angular Velocity (rad/s)
3.000423801480182728e+00,1.694349247712331752e-01
3.001692726359103780e+00,3.378975506404335860e-01
3.003799681838373203e+00,5.045057992234351918e-01
3.006733351732337578e+00,6.684582348368922622e-01
3.010478680915248617e+00,8.290652127703731500e-01
3.015017493962145245e+00,9.857711806799821508e-01
3.020329201442115252e+00,1.138167427553493649e+00
3.026391546910764507e+00,1.285995787737894913e+00
3.033181352671039388e+00,1.429144743349867852e+00
3.040675231145395951e+00,1.567639925636580056e+00
3.048850239305669785e+00,1.701631198577025605e+00
3.057684464342837583e+00,1.831378395637231593e+00
3.067157538430325570e+00,1.957237487036008305e+00
3.077251088424791448e+00,2.079648593444511917e+00
3.087949132558608589e+00,2.199126924443197240e+00
3.099238440898739011e+00,2.316257470179628797e+00
3.111108880125552645e+00,2.431694153319117646e+00
3.123553766739502802e+00,2.546164184493437066e+00
3.136570256995630412e+00,2.660478589865045596e+00
3.150159807761341302e+00,2.775550347144501551e+00
3.164328751525958161e+00,2.892422376018034758e+00
3.179089043091241518e+00,3.012308968313358815e+00
3.194459258480247588e+00,3.136656466053330927e+00
3.210465964240145187e+00,3.267232777710642466e+00
3.227145638326141874e+00,3.406261996461990460e+00
3.244547432605852766e+00,3.556632690792348672e+00
3.262737262805682104e+00,3.722232338095687876e+00
3.281804082024367020e+00,3.908509712832620941e+00
3.301869939323394565e+00,4.123476682302350760e+00
3.323107046634298012e+00,4.379627720948993996e+00
3.345768974616666114e+00,4.697985163612309556e+00
3.370253788471894385e+00,5.117809938430580630e+00
3.397252281267096219e+00,5.724830957772150342e+00
3.428191224070093135e+00,6.764199985203837251e+00
3.467439830193964845e+00,9.579449152731449146e+00
3.542550033540713184e+00,1.043529654241640259e+01
3.584075779347071222e+00,7.100202837738903483e+00
3.616144048493664442e+00,5.871930665948532635e+00
3.643653689836780174e+00,5.185329264591021392e+00
3.668372186263801016e+00,4.728878762045952477e+00
3.691147183923259689e+00,4.396917471932707322e+00
3.712468342308372193e+00,4.141823324563715936e+00
3.732650952723457927e+00,3.938374123617522038e+00
3.751913133321620020e+00,3.771727122893861583e+00
3.770413708935169694e+00,3.632470647639929773e+00
3.788272871135053954e+00,3.514294170945727380e+00
3.805584353322075231e+00,3.412778838996131103e+00
3.822423044499894562e+00,3.324721089411244446e+00
3.838849980245387261e+00,3.247731458871995436e+00
3.854915742258504086e+00,3.179984968882561436e+00
3.870662848868558381e+00,3.120059543834547089e+00
3.886127481828669517e+00,3.066827861635017083e+00
3.901340762741158930e+00,3.019382870312649736e+00
3.916329715596704730e+00,2.976985207340496764e+00
3.931118005407301386e+00,2.939025270716029592e+00
3.945726513831076421e+00,2.904995333313068695e+00
3.960173793966281774e+00,2.874468691622607430e+00
3.974476434129697644e+00,2.847083836985720318e+00
3.988649352084534083e+00,2.822532275130767765e+00
4.002706035427169518e+00,2.800549037294080446e+00
4.016736702256399560e+00,2.811693283675110067e+00
4.030822757087053176e+00,2.822710706099444522e+00
4.044963659996851923e+00,2.833638433792294631e+00
4.059159048832920114e+00,2.844510517253199477e+00
4.073408724849486795e+00,2.855358331473140332e+00
4.087712640229311134e+00,2.866210927629265548e+00
4.102070887251355380e+00,2.877095341080612823e+00
4.116483688903104898e+00,2.888036862233279933e+00
4.130951390766107068e+00,2.899059275810033753e+00
4.145474454028780009e+00,2.910185073206144057e+00
4.160053449502132850e+00,2.921435641907271119e+00
4.174689052532396971e+00,2.932831435359900762e+00
4.189382038720286694e+00,2.944392126198689841e+00
4.204133280370067283e+00,2.956136745330828486e+00
4.218943743603262853e+00,2.968083809041139887e+00
4.233814486081911355e+00,2.980251436001734699e+00
4.248746655295118302e+00,2.992657455837413050e+00
4.263741487370397820e+00,3.005319510705141806e+00
4.278800306378182761e+00,3.018255151186762131e+00
4.293924524104036244e+00,3.031481927663669307e+00
4.309115640268683656e+00,3.045017478236546893e+00
4.324375243181051154e+00,3.058879614169170758e+00
4.339705010814256525e+00,3.073086403770265651e+00
4.355106712298910665e+00,3.087656255579430020e+00
4.370582209832354792e+00,3.102608001690762674e+00
4.386133461006557432e+00,3.117960982029963635e+00
4.401762521561474628e+00,3.133735130396651414e+00
4.417471548574740225e+00,3.149951063093152648e+00
4.433262804102716004e+00,3.166630170984056303e+00
4.449138659292249720e+00,3.183794715867804381e+00
4.465101598986993103e+00,3.201467932093184476e+00
4.481154226856990164e+00,3.219674134420912992e+00
4.497299271085421601e+00,3.238438833215056434e+00
4.513539590652080769e+00,3.257788858152773415e+00
4.529878182259407637e+00,3.277752491766288578e+00
4.546318187953826140e+00,3.298359614281237473e+00
4.562862903502892031e+00,3.319641861394396987e+00
4.579515787597499887e+00,3.341632796846083941e+00
4.596280471958266389e+00,3.364368101893989493e+00
4.613160772436476265e+00,3.387885784093014774e+00
4.630160701212858498e+00,3.412226408138576250e+00
4.647284480212253932e+00,3.437433351949552129e+00
4.664536555869336354e+00,3.463553091664834493e+00
4.681921615400356451e+00,3.490635519820662225e+00
4.699444604758920008e+00,3.518734301684859567e+00
4.717110748480770610e+00,3.547907275574070596e+00
4.734925571654148513e+00,3.578216904002673004e+00
4.752894924289519096e+00,3.609730783747012950e+00
4.771025008406521550e+00,3.642522224406108400e+00
4.789322408208295023e+00,3.676670906863702459e+00
4.807794123775743778e+00,3.712263635287860630e+00
4.826447608789121269e+00,3.749395199047568461e+00
4.845290812874369912e+00,3.788169364315956855e+00
4.864332229280646125e+00,3.828700019342262895e+00
4.883580948728049265e+00,3.871112502639202368e+00
4.903046720426702976e+00,3.915545149952032844e+00
4.922740021467785887e+00,3.962151104252994216e+00
4.942672136033923636e+00,4.011100443679580962e+00
4.962855246183747404e+00,4.062582696036443508e+00
4.983302536350911360e+00,4.116809826203205347e+00
5.004028314184756354e+00,4.174019805903549596e+00
5.025075752865617140e+00,4.245705242015429093e+00
5.046493216549151839e+00,4.322102668985517759e+00
5.068305411588516662e+00,4.403681737983573541e+00
5.090539569634481509e+00,4.490985151563695155e+00
5.113225849167464254e+00,4.584643756667442283e+00
5.136397822123766055e+00,4.685395678562787047e+00
5.160093069006061128e+00,4.794110844831285689e+00
5.184353913900928035e+00,4.911822799025087782e+00
5.209228342236866816e+00,5.039770524419171061e+00
5.234771160617834873e+00,5.179454247371170439e+00
5.261045482409407725e+00,5.332711134277889897e+00
5.288124659466713062e+00,5.501819900834125754e+00
5.316094837157048225e+00,5.689648452911948873e+00
5.345058400106933227e+00,5.899867333161902927e+00
5.375138724378820676e+00,6.137266985866227209e+00
5.406486904541899285e+00,6.408244853637709681e+00
5.439291574094890613e+00,6.721582409515248102e+00
5.473793781153398541e+00,7.089743105712393856e+00
5.510310563565715469e+00,7.531166434366047824e+00
5.549274490054304287e+00,8.074621244178393553e+00
5.591305031840796858e+00,8.768267333589617962e+00
5.637350840668512220e+00,9.701052036551596203e+00
5.689017093641347778e+00,1.106345518248782867e+01
5.749513818717643332e+00,1.338115169624002654e+01
5.828052304723545518e+00,1.926612105312284484e+01
5.988064248874509055e+00,2.000000000000000000e+01
6.069199900508977841e+00,1.400437478598498231e+01
6.133313072688871159e+00,1.190315561414398005e+01
6.189802839542806190e+00,1.079194877950102516e+01
6.241945742322241308e+00,1.011815418294039048e+01
6.291410104691103733e+00,9.702965415947902628e+00
6.339289314567903233e+00,9.477702835715803076e+00
6.386473275881245470e+00,9.425474399187136143e+00
6.433874213212037674e+00,9.573561690742854680e+00
6.482706298513075893e+00,1.002635547714038111e+01
6.535184108572646089e+00,1.113726479561918836e+01
6.598178844577244462e+00,1.519958315155319539e+01
6.702483076989367738e+00,1.336236386102262230e+01
6.757916005479587263e+00,9.808795499086542691e+00
6.802923501021615138e+00,8.357072510091668960e+00
6.842467870595317692e+00,7.522340051250228754e+00
6.878582145860256958e+00,6.954640593957326367e+00
6.912253701058970634e+00,6.532502306478623844e+00
6.944056292714321010e+00,6.200622716302284232e+00
6.974360657055930446e+00,5.929556790615953865e+00
7.003423909393216462e+00,5.701921244130578437e+00
7.031014470450946519e+00,5.344263328794411905e+00
7.056952951899224225e+00,5.038646659596510702e+00
7.081467159442133230e+00,4.772882847479890778e+00
7.104733918168896878e+00,4.538478404749857198e+00
7.126893899270048571e+00,4.329298768699842093e+00
7.148061283992485748e+00,4.140781580566865294e+00
7.168330315584271695e+00,3.969450058305465490e+00
7.187779888639640902e+00,3.812599509055649705e+00
7.206476853276320149e+00,3.668088357393291865e+00
7.224478450535382734e+00,3.534194721623925339e+00
7.241834144236781512e+00,3.409515466551462204e+00
7.258587023505477021e+00,3.292893573539263041e+00
7.274774893496054773e+00,3.183364862916493898e+00
7.290431135483620650e+00,3.080118234986287451e+00
7.305585393554276941e+00,2.982465540353070654e+00
7.320264129006607945e+00,2.889818430014946760e+00
7.334491072490480157e+00,2.801670344898333553e+00
7.348287596145242517e+00,2.717582344028908192e+00
7.361673022469446437e+00,2.637171837174396405e+00
7.374664882655189047e+00,2.560103541321379517e+00
7.387279134187848761e+00,2.486082158460005243e+00
7.399530345334257575e+00,2.414846399112127617e+00
7.411431852505993234e+00,2.346164067757522620e+00
7.422995895241498054e+00,2.279827993394842434e+00
7.434233732597103739e+00,2.215652638100886307e+00
7.445155743998525644e+00,2.153471253557085241e+00
7.455771517027496742e+00,2.093133483530992933e+00
7.466089924163918035e+00,2.034503331654111236e+00
7.476119190143401205e+00,1.977457430252440806e+00
7.485866951302005745e+00,1.921883558707403905e+00
7.495340308048195510e+00,1.867679369758733499e+00
7.504545871414403102e+00,1.814751289974131154e+00
7.513489804487769597e+00,1.763013566797277720e+00
7.522177859394478361e+00,1.712387439516171117e+00
7.530615410409048138e+00,1.662800415446629820e+00
