Angle (rad),Angular Velocity (rad/s)
3.000423801480182728e+00,1.694349247712331752e-01
3.001692726359103780e+00,3.378975506404335860e-01
3.003799681838373203e+00,5.045057992234351918e-01
3.006733351732337578e+00,6.684582348368922622e-01
3.010478680915248617e+00,8.290652127703731500e-01
3.015017493962145245e+00,9.857711806799821508e-01
3.020329201442115252e+00,1.138167427553493649e+00
3.026391546910764507e+00,1.285995787737894913e+00
3.033181352671039388e+00,1.429144743349867852e+00
3.040675231145395951e+00,1.567639925636580056e+00
3.048850239305669785e+00,1.701631198577025605e+00
3.057684464342837583e+00,1.831378395637231593e+00
3.067157538430325570e+00,1.957237487036008305e+00
3.077251088424791448e+00,2.079648593444511917e+00
3.087949132558608589e+00,2.199126924443197240e+00
3.099238440898739011e+00,2.316257470179628797e+00
3.111108880125552645e+00,2.431694153319117646e+00
3.123553766739502802e+00,2.546164184493437066e+00
3.136570256995630412e+00,2.660478589865045596e+00
3.150159807761341302e+00,2.775550347144501551e+00
3.164328751525958161e+00,2.892422376018034758e+00
3.179089043091241518e+00,3.012308968313358815e+00
3.194459258480247588e+00,3.136656466053330927e+00
3.210465964240145187e+00,3.267232777710642466e+00
3.227145638326141874e+00,3.406261996461990460e+00
3.244547432605852766e+00,3.556632690792348672e+00
3.262737262805682104e+00,3.722232338095687876e+00
3.281804082024367020e+00,3.908509712832620941e+00
3.301869939323394565e+00,4.123476682302350760e+00
3.323107046634298012e+00,4.379627720948993996e+00
3.345768974616666114e+00,4.697985163612309556e+00
3.370253788471894385e+00,5.117809938430580630e+00
3.397252281267096219e+00,5.724830957772150342e+00
3.428191224070093135e+00,6.764199985203837251e+00
3.467439830193964845e+00,9.579449152731449146e+00
3.542550033540713184e+00,1.043529654241640259e+01
3.584075779347071222e+00,7.100202837738903483e+00
3.616144048493664442e+00,5.871930665948532635e+00
3.643653689836780174e+00,5.185329264591021392e+00
3.668372186263801016e+00,4.728878762045952477e+00
3.691147183923259689e+00,4.396917471932707322e+00
3.712468342308372193e+00,4.141823324563715936e+00
3.732650952723457927e+00,3.938374123617522038e+00
3.751913133321620020e+00,3.771727122893861583e+00
3.770413708935169694e+00,3.632470647639929773e+00
3.788272871135053954e+00,3.514294170945727380e+00
3.805584353322075231e+00,3.412778838996131103e+00
3.822423044499894562e+00,3.324721089411244446e+00
3.838849980245387261e+00,3.247731458871995436e+00
3.854915742258504086e+00,3.179984968882561436e+00
3.870662848868558381e+00,3.120059543834547089e+00
3.886127481828669517e+00,3.066827861635017083e+00
3.901340762741158930e+00,3.019382870312649736e+00
3.916329715596704730e+00,2.976985207340496764e+00
3.931118005407301386e+00,2.939025270716029592e+00
3.945726513831076421e+00,2.904995333313068695e+00
3.960173793966281774e+00,2.874468691622607430e+00
3.974476434129697644e+00,2.847083836985720318e+00
3.988649352084534083e+00,2.822532275130767765e+00
4.002706035427169518e+00,2.800549037294080446e+00
4.016814653649740663e+00,2.842472671266294881e+00
4.031126695552496919e+00,2.881955801372882320e+00
4.045630504414225115e+00,2.919214058476167661e+00
4.060315462066811598e+00,2.954447380719353866e+00
4.075171912707949318e+00,2.987840934565708206e+00
4.090191091443689864e+00,3.019566079452569163e+00
4.105365057694100095e+00,3.049781343824884861e+00
4.120686633457570913e+00,3.078633389334886505e+00
4.136149346331575494e+00,3.106257947018391086e+00
4.151747377120832638e+00,3.132780714657448673e+00
4.167475511820593503e+00,3.158318208635932045e+00
4.183329097737354729e+00,3.182978566660336739e+00
4.199304003497108972e+00,3.206862299976239505e+00
4.215396582688686777e+00,3.230062995343240040e+00
4.231603640894133100e+00,3.252667968183585501e+00
4.247922405867224249e+00,3.274758869107798898e+00
4.264386314787547150e+00,3.310567405783584771e+00
4.280991848910775666e+00,3.331593709269850656e+00
4.297701781836553714e+00,3.352337865232816405e+00
4.314514863979103332e+00,3.372863763615591370e+00
4.331430156986222357e+00,3.393232076089813809e+00
4.348447018647420670e+00,3.413500651308285505e+00
4.365565089712866609e+00,3.433724884516468734e+00
4.382784282502926843e+00,3.453958064695814567e+00
4.400104771203626974e+00,3.474251702287418198e+00
4.417526983758318870e+00,3.494655840430101357e+00
4.435051595280243397e+00,3.515219352548621945e+00
4.452679522924676725e+00,3.535990229050113509e+00
4.470411922172965902e+00,3.557015855834044782e+00
4.488250184494239292e+00,3.578343287296647635e+00
4.506195936363959653e+00,3.600019516518478291e+00
4.524251039632092741e+00,3.622091745367163274e+00
4.542417593247338736e+00,3.644607657331763395e+00
4.560697936358547366e+00,3.667615696033292405e+00
4.579094652829305723e+00,3.691165352537529643e+00
4.597610577218051553e+00,3.715307464835349904e+00
4.616248802293591247e+00,3.740094533164146196e+00
4.635012688175192963e+00,3.765581055232205543e+00
4.653905873207914823e+00,3.791823885890929002e+00
4.672932286707982108e+00,3.818882626395768476e+00
4.692096163740502313e+00,3.846820049128564456e+00
4.711402062123339007e+00,3.875702564550347340e+00
4.730854881887450070e+00,3.905600738250980974e+00
4.750459887466592868e+00,3.936589867306288681e+00
4.770222732939312316e+00,3.968750626803168480e+00
4.790149490705355895e+00,4.002169799423691110e+00
4.810246684049136690e+00,4.036941103486816118e+00
4.830521324127366789e+00,4.073166137956045318e+00
4.850980952019852133e+00,4.110955466795733315e+00
4.871633686606006819e+00,4.150429869911063996e+00
4.892488279180536637e+00,4.191721794018406833e+00
4.913554175907029808e+00,4.234977044538340785e+00
4.934841589437369613e+00,4.280356769485294421e+00
4.956361581310133602e+00,4.328039799024815615e+00
4.978126157098823334e+00,4.378225420809217283e+00
5.000148376732534317e+00,4.431136692662917653e+00
5.022476522942255883e+00,4.500881716171127422e+00
5.045165159272515076e+00,4.575408100605933726e+00
5.068239379350899299e+00,4.655202289135040417e+00
5.091726896237961597e+00,4.740828024801500895e+00
5.115658468164597572e+00,4.832942690355539028e+00
5.140068416639629767e+00,4.932318131071135703e+00
5.164995262963528511e+00,5.039867496203959796e+00
5.190482518365680420e+00,5.156680278696909703e+00
5.216579676135429722e+00,5.284068702138597473e+00
5.243343473316300241e+00,5.423630095002641482e+00
5.270839518149990077e+00,5.577332241036384808e+00
5.299144423122181813e+00,5.747632495353297344e+00
5.328348651871539943e+00,5.937647794581019767e+00
5.358560398664562463e+00,6.151403631575339759e+00
5.389911003688576230e+00,6.394209716039295444e+00
5.422562728385177167e+00,6.673246993645490122e+00
5.456720300161123305e+00,6.998524047201730269e+00
5.492648764106085935e+00,7.384516271513697383e+00
5.530702509268349054e+00,7.853157476236957812e+00
5.571375578219890379e+00,8.439756040498808787e+00
5.615396538074692856e+00,9.206010195078624392e+00
5.663929640113820163e+00,1.027326057071904408e+01
5.719083811549276142e+00,1.192934411354537261e+01
5.785667350262329478e+00,1.514964661487079844e+01
5.885758514828005161e+00,2.000000000000000000e+01
6.005008123290780375e+00,1.491124418962751363e+01
6.071285625374307493e+00,1.217968288523029941e+01
6.129393336167290762e+00,1.120504051801310474e+01
6.184280567222918634e+00,1.081674349985152972e+01
6.236306958434399306e+00,1.004969485521381145e+01
6.286956993921034353e+00,1.024528135787719485e+01
6.339138039289577975e+00,1.066998003136838769e+01
6.394180812999665342e+00,1.141372412302590256e+01
6.454209022995666345e+00,1.273354981878268966e+01
6.523889250554128161e+00,1.557944173636259144e+01
6.627701128827730770e+00,2.000000000000000000e+01
6.703564195185292895e+00,7.943171689475871489e+00
6.736136655072990642e+00,5.481827888250335512e+00
6.760219444579155912e+00,4.254066301047488174e+00
6.779348024286706575e+00,3.442423566820682623e+00
6.794974093504600354e+00,2.832542793652812918e+00
6.807864974136814240e+00,2.338848413833274797e+00
6.818484393632563645e+00,1.918806488297064128e+00
6.827134908199546715e+00,1.548169159917865967e+00
6.834022741963765135e+00,1.211681141010222174e+00
6.839291167166116736e+00,8.989515737618619662e-01
6.843039101399504887e+00,6.023813605539367622e-01
6.845331930325175840e+00,3.160112134855770916e-01
6.846207811131274745e+00,3.481409066233037697e-02
6.845681050240774113e+00,-2.457940250702418672e-01
6.843743311322755929e+00,-5.303487977970037237e-01
6.840362907159304839e+00,-8.237223107874018790e-01
6.835482027066128730e+00,-1.131578676883604917e+00
6.829011292626700147e+00,-1.461010015338719104e+00
6.820820313123745038e+00,-1.821543687677610324e+00
6.810721534857195003e+00,-2.226910193753002698e+00
6.798441663906745980e+00,-2.698470567522453400e+00
6.783567447080897317e+00,-3.272672845585303580e+00
6.765430825184014729e+00,-4.019966352927603737e+00
6.742819519676467976e+00,-5.105293034829236021e+00
6.712983159920828946e+00,-7.082859529762959738e+00
6.663215969915033732e+00,-1.738210228188566120e+01
6.575423800851165623e+00,-1.061621292506066361e+01
6.530179713597753732e+00,-7.920503347674678452e+00
6.494149710280852972e+00,-6.604681692254248837e+00
6.463398567386628990e+00,-5.744706269236290019e+00
6.436346200623279223e+00,-5.102510317048784216e+00
6.412169792017817116e+00,-4.583929715280174122e+00
6.390379107542802473e+00,-4.142649805443172184e+00
6.370658379311899822e+00,-3.752633333003800420e+00
6.352794348567307736e+00,-3.397847554178812679e+00
6.336638927573723379e+00,-3.067752994199515637e+00
6.322087889765297675e+00,-2.755083463416352352e+00
6.309067761783690997e+00,-2.454658615593346305e+00
6.297527236391432304e+00,-2.162706962820908352e+00
6.287431226464780920e+00,-1.876459279141208469e+00
6.278756540734038438e+00,-1.593892321632600417e+00
6.271488606669088917e+00,-1.313558348408444987e+00
6.265618911796435597e+00,-1.034463579557368007e+00
6.261142978380224378e+00,-7.559735635779427643e-01
6.258058773289059573e+00,-4.777320220436538922e-01
6.256365507399888948e+00,-1.995852160333418945e-01
6.256062808768025008e+00,7.849238284850545977e-02
6.257150267969507240e+00,3.564727392657305871e-01
6.259627357680967563e+00,6.343492085158086713e-01
6.263493726337989287e+00,9.122111026669652567e-01
6.268749862622460256e+00,1.190317447736694012e+00
6.275398127989375574e+00,1.469170731759899429e+00
