Angle (rad),Angular Velocity (rad/s)
3.000423801480182728e+00,1.694349247712331752e-01
3.001692726359103780e+00,3.378975506404335860e-01
3.003799681838373203e+00,5.045057992234351918e-01
3.006733351732337578e+00,6.684582348368922622e-01
3.010478680915248617e+00,8.290652127703731500e-01
3.015017493962145245e+00,9.857711806799821508e-01
3.020329201442115252e+00,1.138167427553493649e+00
3.026391546910764507e+00,1.285995787737894913e+00
3.033181352671039388e+00,1.429144743349867852e+00
3.040675231145395951e+00,1.567639925636580056e+00
3.048850239305669785e+00,1.701631198577025605e+00
3.057684464342837583e+00,1.831378395637231593e+00
3.067157538430325570e+00,1.957237487036008305e+00
3.077251088424791448e+00,2.079648593444511917e+00
3.087949132558608589e+00,2.199126924443197240e+00
3.099238440898739011e+00,2.316257470179628797e+00
3.111108880125552645e+00,2.431694153319117646e+00
3.123553766739502802e+00,2.546164184493437066e+00
3.136570256995630412e+00,2.660478589865045596e+00
3.150159807761341302e+00,2.775550347144501551e+00
3.163169826552425956e+00,2.428267416705157000e+00
3.175602415786500377e+00,2.545053754103540289e+00
3.188624050842450153e+00,2.664058387376698089e+00
3.202248583210005606e+00,2.786421455023434302e+00
3.216496165333528445e+00,2.913535844673454278e+00
3.231394732726395880e+00,3.047140856492303929e+00
3.246982066351601581e+00,3.189464524002079138e+00
3.263951799512130325e+00,3.603681954092688322e+00
3.282415134755992892e+00,3.785375031163121573e+00
3.301849560237814174e+00,3.993600288371103701e+00
3.322413788330065731e+00,4.239647565281749131e+00
3.344339460180130175e+00,4.542220115468106556e+00
3.367985307446391463e+00,4.935484803141562793e+00
3.393960264310384556e+00,5.491515635739575352e+00
3.423471643835350076e+00,6.403642117710020010e+00
3.459836379216388202e+00,8.549435608693071842e+00
3.533736843095597546e+00,1.316514953761420514e+01
3.582066945140922609e+00,7.874398698727771873e+00
3.617243926544760679e+00,6.389525092170832643e+00
3.647050288899901460e+00,5.598319374343997623e+00
3.673676146703462653e+00,5.083562592409355929e+00
3.698123956119400813e+00,4.713736222330291881e+00
3.720958511935879454e+00,4.431740034031396824e+00
3.742537838659950822e+00,4.208019280575948429e+00
3.763106958392251844e+00,4.025452933440818448e+00
3.782842879473192532e+00,3.873308806639141899e+00
3.801878745157779793e+00,3.744454112071788021e+00
3.820317894939776249e+00,3.633929029727190230e+00
3.838242575845882243e+00,3.538158259136448436e+00
3.855719609897646283e+00,3.454487716081025450e+00
3.872804230494168554e+00,3.380898484847743912e+00
3.889542766028323495e+00,3.315822842329268383e+00
3.905974569791300866e+00,3.258021794143534766e+00
3.922133441057071401e+00,3.206501131159064766e+00
3.938048693117609300e+00,3.160452414926720355e+00
3.953745970455679881e+00,3.119210562432232159e+00
3.969370350418842452e+00,3.130460993629902600e+00
3.984933857796693957e+00,3.095569609133753897e+00
4.000331991250960506e+00,3.064247158002900928e+00
4.015816834548967762e+00,3.128876862957623572e+00
4.031612992354979497e+00,3.188845084491243043e+00
4.047698214813506112e+00,3.244569984902807569e+00
4.064052270020389379e+00,3.296440621465174914e+00
4.080656799625089093e+00,3.344817498350864504e+00
4.097495178534989790e+00,3.390033622794435431e+00
4.114552380791809405e+00,3.432395892698313133e+00
4.131814852933847426e+00,3.472186684543076218e+00
4.149270395589416793e+00,3.509665544122034575e+00
4.166908053628738173e+00,3.545070909283132732e+00
4.184718014901633865e+00,3.578621814623487385e+00
4.202691517379689046e+00,3.610519543999517467e+00
4.220820764382360757e+00,3.640949208738784915e+00
4.239098847479440657e+00,3.670081238385298761e+00
4.257519676613689796e+00,3.698072777358973440e+00
4.276077916966784187e+00,3.725068985616590389e+00
4.294768932090939906e+00,3.751204244709390068e+00
4.313588732841553863e+00,3.776603272891069452e+00
4.332533931668563376e+00,3.801382154411733882e+00
4.351601701852052528e+00,3.825649289049913193e+00
4.370789741299886622e+00,3.849506268444168544e+00
4.390096240558040819e+00,3.873048686014965103e+00
4.409519854718775278e+00,3.896366887304353543e+00
4.429059678945624690e+00,3.919546667478145618e+00
4.448715227367579850e+00,3.942669922583617037e+00
4.468486415127344458e+00,3.965815260974919543e+00
4.488373543400154375e+00,3.989058581138063886e+00
4.508377287230409536e+00,4.012473621990546135e+00
4.528498686063417544e+00,4.036132491615828322e+00
4.548739136879204281e+00,4.060106180335431247e+00
4.569100389864837020e+00,4.084465064035467385e+00
4.589584546591520819e+00,4.109279403763918204e+00
4.610194060693247664e+00,4.134619847814700933e+00
4.630915595410113106e+00,4.154341953585317881e+00
4.651753587803873380e+00,4.180971661089499136e+00
4.672726541462151495e+00,4.208339117156744358e+00
4.693838337244022441e+00,4.236521638870410555e+00
4.715093250180487416e+00,4.265599685195925694e+00
4.736495966838917937e+00,4.295657528574585271e+00
4.758051606199871664e+00,4.326783990487776954e+00
4.779765744401155203e+00,4.359073255393750124e+00
4.801644443782331351e+00,4.392625780054339124e+00
4.823694286755843663e+00,4.427549318557287172e+00
4.845922415142439377e+00,4.463960087484250217e+00
4.868336575743382966e+00,4.501984100917153064e+00
4.890945173086431730e+00,4.541758711638418156e+00
4.913757330484703978e+00,4.583434403395252765e+00
4.936782960798149489e+00,4.627176890048255054e+00
4.960032848600339328e+00,4.673169591606037621e+00
4.983518745847479892e+00,4.721616575656143233e+00
5.007253483647188474e+00,4.772746077062902437e+00
5.031328349463713323e+00,4.858298043657504728e+00
5.055848014405749602e+00,4.950783977599810370e+00
5.080849022503795887e+00,5.050974496305061123e+00
5.106372108057225745e+00,5.159779958687752632e+00
5.132462974326678307e+00,5.278283943009467016e+00
5.159173264493934319e+00,5.407787243895197271e+00
5.186561787220162145e+00,5.549866543280199238e+00
5.214696084542990384e+00,5.706453937960752398e+00
5.243654468288072579e+00,5.879946736834354759e+00
5.273528710277957998e+00,6.073362240462749639e+00
5.304445046996068669e+00,6.297688428265807659e+00
5.336536297137109308e+00,6.544129055361744385e+00
5.369710842802037476e+00,6.729573988536690088e+00
5.404137427359636980e+00,7.049172529310651747e+00
5.440295113702446450e+00,7.424485387828182681e+00
5.478168729565898509e+00,7.733928284487819660e+00
5.518126465022902494e+00,8.268315524133322825e+00
5.561084644394920673e+00,8.943403869495462288e+00
5.607920184186858670e+00,9.836656761701274121e+00
5.660066662304654272e+00,1.110563574673268228e+01
5.720221937369448284e+00,1.314636975326283874e+01
5.795062471718874342e+00,1.749137661705739077e+01
5.947432802272007102e+00,2.000000000000000000e+01
6.016893995631818370e+00,1.113903381536340476e+01
6.067106333198129420e+00,9.220227171844367575e+00
6.110605478998254902e+00,8.268512138620772944e+00
6.150402586649340364e+00,7.693422974815232074e+00
6.187869050894560630e+00,7.318838614171285784e+00
6.223802009795986301e+00,7.072017258504629922e+00
6.258743402176622617e+00,6.918260712116147459e+00
6.293111231348666124e+00,6.840812518636406381e+00
6.327268168545188587e+00,6.833623704385434650e+00
6.361568285769445552e+00,6.899237067139369906e+00
6.396401677927042506e+00,7.050017372636652624e+00
6.432255352922545022e+00,7.313894165846948070e+00
6.469825092243831399e+00,7.750847686503513856e+00
6.510281237883075889e+00,8.506245132472143311e+00
6.556142042642321144e+00,1.005959019891757578e+01
6.617303480331687027e+00,1.685434099379151363e+01
6.724291849844470370e+00,1.326642165546394736e+01
6.780371414491591864e+00,9.831466508555550377e+00
6.825339721347702948e+00,8.306635048625768292e+00
6.864396326890027211e+00,7.378993565662056220e+00
6.899586074586793849e+00,6.730490112418220150e+00
6.931897194706630572e+00,6.215691014137634696e+00
6.961975897709316463e+00,5.829313123604406677e+00
6.990303912063558833e+00,5.511474484538012142e+00
7.016951568360451752e+00,5.157437222112998043e+00
7.041883622210732163e+00,4.823680962911682357e+00
7.065261185205170769e+00,4.533748250984992900e+00
7.087278034573074592e+00,4.278061744324698878e+00
7.108305476760516939e+00,4.135240335504435372e+00
7.128448714350845705e+00,3.925554240783055704e+00
7.147592930187968818e+00,3.735045050235528130e+00
7.165825898549219808e+00,3.560597989738103930e+00
7.183221572460533721e+00,3.399764567891547351e+00
7.199842952593806800e+00,3.250588400295027824e+00
7.215744226926849691e+00,3.111483903560190445e+00
7.231239807701838274e+00,3.086768682992190982e+00
7.246357411635614199e+00,2.961543728850131174e+00
7.260867185590063499e+00,2.843488205398109425e+00
7.274802868304306003e+00,2.731781533674736195e+00
7.288194414551112388e+00,2.625726357909532460e+00
7.301068551210396329e+00,2.524725505543495174e+00
7.313449231461356170e+00,2.428264024500912388e+00
7.325358009110638946e+00,2.335895021448419762e+00
7.336814349641489486e+00,2.247228382116368994e+00
7.347835890630570077e+00,2.161921702552790148e+00
7.358438661284715465e+00,2.079672934717947896e+00
7.368796696478580266e+00,2.063506140766235397e+00
7.379086238766625172e+00,2.052238112368062417e+00
7.389156495686442838e+00,1.976271973690559625e+00
7.398852861619271692e+00,1.902648424361189194e+00
7.408186567372334608e+00,1.831177966075328456e+00
7.417167944383355582e+00,1.761689915839662612e+00
7.425806512638974510e+00,1.694030008963873346e+00
7.434111057540601308e+00,1.628058363323300117e+00
7.442089697360473544e+00,1.563647741784920830e+00
7.449749942647403422e+00,1.500682062086681201e+00
7.457098748713391068e+00,1.439055113161197275e+00
7.464142562147089599e+00,1.378669444539257327e+00
7.470887362149021271e+00,1.319435401532448315e+00
7.477338697359485309e+00,1.261270283734565290e+00
7.483501718747872289e+00,1.204097608268099195e+00
7.489381209047346388e+00,1.147846462340382789e+00
7.494981609148267054e+00,1.092450932221491922e+00
7.500307041804653352e+00,1.037849597834346715e+00
