Angle (rad),Angular Velocity (rad/s)
3.000423801480182728e+00,1.694349247712331752e-01
3.001692726359103780e+00,3.378975506404335860e-01
3.003799681838373203e+00,5.045057992234351918e-01
3.006733351732337578e+00,6.684582348368922622e-01
3.010478680915248617e+00,8.290652127703731500e-01
3.015017493962145245e+00,9.857711806799821508e-01
3.020329201442115252e+00,1.138167427553493649e+00
3.026391546910764507e+00,1.285995787737894913e+00
3.033181352671039388e+00,1.429144743349867852e+00
3.040675231145395951e+00,1.567639925636580056e+00
3.048850239305669785e+00,1.701631198577025605e+00
3.057684464342837583e+00,1.831378395637231593e+00
3.067157538430325570e+00,1.957237487036008305e+00
3.077251088424791448e+00,2.079648593444511917e+00
3.087949132558608589e+00,2.199126924443197240e+00
3.099238440898739011e+00,2.316257470179628797e+00
3.111108880125552645e+00,2.431694153319117646e+00
3.123553766739502802e+00,2.546164184493437066e+00
3.136570256995630412e+00,2.660478589865045596e+00
3.150159807761341302e+00,2.775550347144501551e+00
3.164328751525958161e+00,2.892422376018034758e+00
3.179089043091241518e+00,3.012308968313358815e+00
3.194459258480247588e+00,3.136656466053330927e+00
3.210465964240145187e+00,3.267232777710642466e+00
3.227145638326141874e+00,3.406261996461990460e+00
3.244547432605852766e+00,3.556632690792348672e+00
3.262737262805682104e+00,3.722232338095687876e+00
3.281804082024367020e+00,3.908509712832620941e+00
3.301869939323394565e+00,4.123476682302350760e+00
3.323107046634298012e+00,4.379627720948993996e+00
3.345768974616666114e+00,4.697985163612309556e+00
3.370253788471894385e+00,5.117809938430580630e+00
3.397252281267096219e+00,5.724830957772150342e+00
3.428191224070093135e+00,6.764199985203837251e+00
3.467439830193964845e+00,9.579449152731449146e+00
3.542550033540713184e+00,1.043529654241640259e+01
3.584075779347071222e+00,7.100202837738903483e+00
3.616144048493664442e+00,5.871930665948532635e+00
3.643653689836780174e+00,5.185329264591021392e+00
3.668372186263801016e+00,4.728878762045952477e+00
3.691147183923259689e+00,4.396917471932707322e+00
3.712468342308372193e+00,4.141823324563715936e+00
3.732650952723457927e+00,3.938374123617522038e+00
3.751913133321620020e+00,3.771727122893861583e+00
3.770413708935169694e+00,3.632470647639929773e+00
3.788272871135053954e+00,3.514294170945727380e+00
3.805584353322075231e+00,3.412778838996131103e+00
3.822423044499894562e+00,3.324721089411244446e+00
3.838849980245387261e+00,3.247731458871995436e+00
3.854915742258504086e+00,3.179984968882561436e+00
3.870662848868558381e+00,3.120059543834547089e+00
3.886127481828669517e+00,3.066827861635017083e+00
3.901340762741158930e+00,3.019382870312649736e+00
3.916329715596704730e+00,2.976985207340496764e+00
3.931118005407301386e+00,2.939025270716029592e+00
3.945726513831076421e+00,2.904995333313068695e+00
3.960173793966281774e+00,2.874468691622607430e+00
3.974476434129697644e+00,2.847083836985720318e+00
3.988649352084534083e+00,2.822532275130767765e+00
4.002706035427169518e+00,2.800549037294080446e+00
4.016866615102274274e+00,2.862987437294724380e+00
4.031329229711047901e+00,2.921417242293943062e+00
4.046074635913334383e+00,2.976155504106322347e+00
4.061085132893450300e+00,3.027502060170585985e+00
4.076344474942617424e+00,3.075739082929191959e+00
4.091837782989366623e+00,3.121131087746344068e+00
4.107551457063032707e+00,3.163925280399146445e+00
4.123473091139140401e+00,3.204352148080373386e+00
4.139591391385995856e+00,3.242626217650577569e+00
4.155896098493496282e+00,3.278946921582894358e+00
4.172377914503088370e+00,3.313499525866748119e+00
4.189028434358267994e+00,3.346456085388993085e+00
4.205840082246036893e+00,3.377976401342114077e+00
4.222806052691082002e+00,3.408208962365631756e+00
4.239920256287566858e+00,3.437291856730730011e+00
4.257177269901290195e+00,3.465353647215487776e+00
4.274572291141883973e+00,3.492514203635819214e+00
4.292101096886103306e+00,3.518885490503501856e+00
4.309760005625530077e+00,3.544572309150137102e+00
4.327545843412303306e+00,3.569672995025789941e+00
4.345455913182651564e+00,3.594280071867653525e+00
4.363487967248290467e+00,3.618480865129102053e+00
4.381640182759101165e+00,3.642358077535646999e+00
4.399911139955309025e+00,3.665990329950813198e+00
4.418299803044462237e+00,3.689452670934393996e+00
4.436805503555129704e+00,3.712817058498758982e+00
4.455427926037335062e+00,3.736152817639683210e+00
4.474167095997612087e+00,3.759527077262490469e+00
4.493023369974793013e+00,3.783005190159205888e+00
4.511997427680999095e+00,3.806651139733460809e+00
4.531090266150935797e+00,3.830527937230169933e+00
4.550303195861589600e+00,3.854698013318230920e+00
4.569637838803985552e+00,3.879223608007975166e+00
4.589096128509003947e+00,3.904167163072173263e+00
4.608680312050711159e+00,3.929591721392380776e+00
4.628392954073560439e+00,3.955561337985125547e+00
4.648236942914613756e+00,3.982141507891136634e+00
4.668215498919176198e+00,4.009399616655041854e+00
4.688332185078491143e+00,4.037405419806736617e+00
4.708590920152278869e+00,4.066231558608746077e+00
4.728996057360533634e+00,4.096007875585948810e+00
4.749552420424744348e+00,4.126707034487243853e+00
4.770264896546011713e+00,4.158467680666900534e+00
4.791139016675685092e+00,4.191380204693857081e+00
4.812180779223273142e+00,4.225541350335555890e+00
4.833396684188197234e+00,4.261055181554556093e+00
4.854793772457029810e+00,4.298034185892266379e+00
4.876379671015344641e+00,4.336600542039860784e+00
4.898162644977316127e+00,4.376887585643882694e+00
4.920151657525503097e+00,4.419041515344289017e+00
4.942356439087632225e+00,4.463223391226577519e+00
4.964787567369551624e+00,4.509611491008233664e+00
4.987456560230929092e+00,4.558404106361725994e+00
5.010375983855698934e+00,4.609822884171227209e+00
5.033573778819178557e+00,4.669899857863955006e+00
5.057081325729058996e+00,4.733784447327963996e+00
5.080918617733710008e+00,4.801867664199812147e+00
5.105107746472609342e+00,4.874599710245437478e+00
5.129673227509838007e+00,4.952502242018116618e+00
5.154642394878313105e+00,5.036183903345446744e+00
5.180045883645890470e+00,5.126360214853201036e+00
5.205918225897672613e+00,5.223879353277324000e+00
5.232298594732785801e+00,5.329756014230559558e+00
5.259231744175608902e+00,5.445216557182438244e+00
5.286769212509558891e+00,5.571760194874521233e+00
5.314970886083127510e+00,5.711243483717969305e+00
5.343907066346022638e+00,5.865999464706411537e+00
5.373661255229483125e+00,6.039009744720516437e+00
5.404333993273026771e+00,6.234160004704404123e+00
5.436048287176515004e+00,6.456631806605638957e+00
5.468957523699013556e+00,6.713526720579091389e+00
5.503257440312135707e+00,7.014907036170161092e+00
5.539205063003080909e+00,7.375631078716528677e+00
5.577150397507108615e+00,7.818825738592813934e+00
5.617593455593215879e+00,8.383085039588189957e+00
5.661297425916093751e+00,9.139364165800383688e+00
5.709796151547185339e+00,1.034760046137539824e+01
5.765792288400626298e+00,1.225163210685593285e+01
5.836537089331755190e+00,1.702818103220880630e+01
5.978629418408714535e+00,2.000000000000000000e+01
6.060170073603386776e+00,1.447961311000134899e+01
6.126877237095169626e+00,1.249047067259269816e+01
6.186765832691932587e+00,1.157165011894409901e+01
6.243673498764893637e+00,1.125023925826818605e+01
6.299496463303484894e+00,1.112716995937397968e+01
6.355425304512136719e+00,1.129522606154784725e+01
6.413043067748548154e+00,1.182544318022309859e+01
6.474708485398365632e+00,1.299263682394933461e+01
6.545779957622474221e+00,1.600241562318544553e+01
6.676097574467128482e+00,2.000000000000000000e+01
6.744232701180434830e+00,1.071698670892886973e+01
6.791690679247254003e+00,8.557738405205515875e+00
6.831402764373830649e+00,7.420893409424872189e+00
6.866537532884091632e+00,6.677394421237326405e+00
6.898509683043065444e+00,6.136751799158574272e+00
6.928106034405294267e+00,5.717885711725044118e+00
6.955821461783702198e+00,5.379318976065218472e+00
6.981992843464002618e+00,5.097207543663017759e+00
7.006862582093169145e+00,4.856683838268759601e+00
7.030361902871420376e+00,4.550364161965308796e+00
7.052430706013426587e+00,4.282850001658309758e+00
7.073594290266549400e+00,4.184040411329461584e+00
7.093957167219728355e+00,3.965031687657254000e+00
7.113280148270903602e+00,3.767386021067574475e+00
7.131660475327776361e+00,3.587436270233248514e+00
7.149179239155436960e+00,3.422343173181773057e+00
7.165904911860649484e+00,3.269867621362499310e+00
7.181895935873827241e+00,3.128215475170934567e+00
7.197202661830056414e+00,2.995929008456394538e+00
7.211868825955418671e+00,2.871809221191645278e+00
7.225932694697574377e+00,2.754859118686382669e+00
7.239427964310484853e+00,2.644241557947197840e+00
7.252384476923291245e+00,2.539247420475113426e+00
7.264828797089787571e+00,2.439271238028328792e+00
7.276784680820648887e+00,2.343792285084777660e+00
7.288273460738039944e+00,2.252359740114194153e+00
7.299314365060713072e+00,2.164580915704135133e+00
7.309924783854386376e+00,2.080111831557633906e+00
7.320120492859400585e+00,1.998649596096250924e+00
7.329915842895712075e+00,1.919926198567839526e+00
7.339323921112982596e+00,1.843703411600029929e+00
7.348356689041178669e+00,1.769768575627544971e+00
7.357025101392610011e+00,1.697931089357643586e+00
7.365339208790201653e+00,1.628019469764652838e+00
7.373308246991727266e+00,1.559878874728223064e+00
7.380940714704147254e+00,1.493369003955049790e+00
7.388244441705474230e+00,1.428362311102319815e+00
7.395226648690977456e+00,1.364742473384539245e+00
7.401894000019068720e+00,1.302403075360815565e+00
7.408252650336929257e+00,1.241246471776526139e+00
7.414308285907114104e+00,1.181182800796675147e+00
7.420066161326367649e+00,1.122129124110123666e+00
7.425531132220973163e+00,1.064008674499348439e+00
7.430707684414481484e+00,1.006750194783184504e+00
7.435599959990158325e+00,9.502873547210685112e-01
7.440211780609063297e+00,8.945582346481413261e-01
7.444629116481999986e+00,8.723796450009251302e-01
7.448854349415127807e+00,8.178170442522391115e-01
7.452808279163666505e+00,7.638498866625955674e-01
