Angle (rad),Angular Velocity (rad/s)
3.000423801480182728e+00,1.694349247712331752e-01
3.001692726359103780e+00,3.378975506404335860e-01
3.003799681838373203e+00,5.045057992234351918e-01
3.006733351732337578e+00,6.684582348368922622e-01
3.010478680915248617e+00,8.290652127703731500e-01
3.015017493962145245e+00,9.857711806799821508e-01
3.020329201442115252e+00,1.138167427553493649e+00
3.026391546910764507e+00,1.285995787737894913e+00
3.033181352671039388e+00,1.429144743349867852e+00
3.040675231145395951e+00,1.567639925636580056e+00
3.048850239305669785e+00,1.701631198577025605e+00
3.057684464342837583e+00,1.831378395637231593e+00
3.067157538430325570e+00,1.957237487036008305e+00
3.077251088424791448e+00,2.079648593444511917e+00
3.087949132558608589e+00,2.199126924443197240e+00
3.099238440898739011e+00,2.316257470179628797e+00
3.111108880125552645e+00,2.431694153319117646e+00
3.123553766739502802e+00,2.546164184493437066e+00
3.136136428208066818e+00,2.487046572753295326e+00
3.148858908721166916e+00,2.602057888068893376e+00
3.162158907651226869e+00,2.718214310676676959e+00
3.176044685623941710e+00,2.836557266324416737e+00
3.190530163165776312e+00,2.958318367104982638e+00
3.205636027527931198e+00,3.084986071476366387e+00
3.221391247933283797e+00,3.218404758517869002e+00
3.237835204418598511e+00,3.360925196425233796e+00
3.255020763238246850e+00,3.515640132885486047e+00
3.273018864788304061e+00,3.686767896272268974e+00
3.291071595397411009e+00,3.533074573980145239e+00
3.309230268251925455e+00,3.735164737732922902e+00
3.328480509598563675e+00,3.971819574617301285e+00
3.349033285104879631e+00,4.259776423075701146e+00
3.371212428317162058e+00,4.629162827722674400e+00
3.395559780505127634e+00,5.142092744487475997e+00
3.423121926228272383e+00,5.958487030168635457e+00
3.456597845446910622e+00,7.731173470164849348e+00
3.519449148415859874e+00,1.208064205356929932e+01
3.558480041607813060e+00,6.020415024207465216e+00
3.585091930475906796e+00,4.796380434006382032e+00
3.607370875334756199e+00,4.169342612238547296e+00
3.627151928086438826e+00,3.768483631956163649e+00
3.645245890409992029e+00,3.483515187483752662e+00
3.662101502361602368e+00,3.267883708046681157e+00
3.679100794220912629e+00,3.521305530921682969e+00
3.696249880120779263e+00,3.344659322215324693e+00
3.712601305549815933e+00,3.200520133567899883e+00
3.728295113646440839e+00,3.080489812531011395e+00
3.743436951568859694e+00,2.978962986727518913e+00
3.758109004656915886e+00,2.892028073678737599e+00
3.772376798956440513e+00,2.816856766022784342e+00
3.786293642274412896e+00,2.751343812923765952e+00
3.799903639253965792e+00,2.693883853899481373e+00
3.813243805838484768e+00,2.643227464395206727e+00
3.826345593264193656e+00,2.598385086993417303e+00
3.839236012468449033e+00,2.558561031448268963e+00
3.851938480645405782e+00,2.523106980621640627e+00
3.864473469987042886e+00,2.491488512345580997e+00
3.876859012652313474e+00,2.463260523956624315e+00
3.889111099317661857e+00,2.438048880534612550e+00
3.901243997666858032e+00,2.415536499405497750e+00
3.913270509766270333e+00,2.395452652354939094e+00
3.925095134532365471e+00,2.335283698923391604e+00
3.936734275978711395e+00,2.320671330759555673e+00
3.948304703499330603e+00,2.307773022003240637e+00
3.959814626597428777e+00,2.296447516325134774e+00
3.971271592057705746e+00,2.286570529666168028e+00
3.982682562433089490e+00,2.278032280708958801e+00
3.994053983302620736e+00,2.270735452531640330e+00
4.005391841231130456e+00,2.264593499066320792e+00
4.016856985463078900e+00,2.320990637937905277e+00
4.028597146336803547e+00,2.374626951577518685e+00
4.040383352244300674e+00,2.340338145582458118e+00
4.052212685074824350e+00,2.390995390807944876e+00
4.064289428124402193e+00,2.439325717349257072e+00
4.076602296321289565e+00,2.485468361700127637e+00
4.089140691640873904e+00,2.529558801985560823e+00
4.101894682900486977e+00,2.571728221697338945e+00
4.114854983285664680e+00,2.612103133961306334e+00
4.128012926344156952e+00,2.650805140259088422e+00
4.141186080587740292e+00,2.618928409336693353e+00
4.154273724367198994e+00,2.616298336851781592e+00
4.167447161755008622e+00,2.652850713253124493e+00
4.180800052484723750e+00,2.688095550002467693e+00
4.194326093746118644e+00,2.722126152196257642e+00
4.208019439549007146e+00,2.755031953315075111e+00
4.221874681553909880e+00,2.786898596518278204e+00
4.235886830389726576e+00,2.817808046910683650e+00
4.250051297595654809e+00,2.847838727930153802e+00
4.264363878293211840e+00,2.877065676133364391e+00
4.278820734668133063e+00,2.905560709650077733e+00
4.293418380320503935e+00,2.933392606442767114e+00
4.308153665524075748e+00,2.960627289259248229e+00
4.323023763421819154e+00,2.987328014812759669e+00
4.338026157173858088e+00,3.013555565278595250e+00
4.353158628065599167e+00,3.039368440670485949e+00
4.368419244577714800e+00,3.064823051064467396e+00
4.383806352415367869e+00,3.089973907983147861e+00
4.399318565491386224e+00,3.114873814548501763e+00
4.414954757856786038e+00,3.139574054265052538e+00
4.430660720998791824e+00,3.143052696092437870e+00
4.446437695300256010e+00,3.167721609725097309e+00
4.462337822488578354e+00,3.192321732957884795e+00
4.478360876240905952e+00,3.216900002941671222e+00
4.494506863353706194e+00,3.241502760554666462e+00
4.510776021217759890e+00,3.266175933345283333e+00
4.527168816214707903e+00,3.290965221382211148e+00
4.543685943052388154e+00,3.315916287118669370e+00
4.560328325062136479e+00,3.341074950538350574e+00
4.577097115487986478e+00,3.366487391024944653e+00
4.593993699805385411e+00,3.392200357590831938e+00
4.611019699115785464e+00,3.418261389319328547e+00
4.628176974673269939e+00,3.444719048126136496e+00
4.645467633610749658e+00,3.471623166235977997e+00
4.662894035945932991e+00,3.499025111110968034e+00
4.680461559354562873e+00,3.528006173068318319e+00
4.698172721309614275e+00,3.556564571871294600e+00
4.716027443604175140e+00,3.585565274721051576e+00
4.734031649211226878e+00,3.616470381115623578e+00
4.752190506568501505e+00,3.647209743475809507e+00
4.770505175819322652e+00,3.678806750340576581e+00
4.788980123015755375e+00,3.711333283065582744e+00
4.807620185353782993e+00,3.744866019124724055e+00
4.826430596737270484e+00,3.779487078784190768e+00
4.845417016786761621e+00,3.815284758768135109e+00
4.864585563766514298e+00,3.852354368785117167e+00
4.883942851990473955e+00,3.890799190090255433e+00
4.903496034373702628e+00,3.930731579379910023e+00
4.923252850924667356e+00,3.972274246485681282e+00
4.943221684131832383e+00,4.015561740859558526e+00
4.963411622392809974e+00,4.060742190132156537e+00
4.983832532876179222e+00,4.107979344633030827e+00
5.004495145508220055e+00,4.157454995435674761e+00
5.025480274148732107e+00,4.237479093793366403e+00
5.046879186508148152e+00,4.323055755536449496e+00
5.068721021345565347e+00,4.414749243652166477e+00
5.091037960878828095e+00,4.513215585552473819e+00
5.113865736938241646e+00,4.619222296299520636e+00
5.137244248844988093e+00,4.733673613293532867e+00
5.161218325103925864e+00,4.857643166484955977e+00
5.185838672539759386e+00,4.992416831236401897e+00
5.211163073139910118e+00,5.139549758862825612e+00
5.237257913317804103e+00,5.300943514520213284e+00
5.264200167038010747e+00,5.478952326876209256e+00
5.292080010775717547e+00,5.676532479082027294e+00
5.321004337726471078e+00,5.897457346631833630e+00
5.351101584719345716e+00,6.146635409796522787e+00
5.382528532520431064e+00,6.430595588932948026e+00
5.415480176817036195e+00,6.758255961417569679e+00
5.450204577651235560e+00,7.142196741040971020e+00
5.487026192642016298e+00,7.600886152414336294e+00
5.526384589354335297e+00,8.162846883177428126e+00
5.568903328040576639e+00,8.875173066225924501e+00
5.615317427389562965e+00,9.734733559890957011e+00
5.667107575544601872e+00,1.107152539396434854e+01
5.727392506315299947e+00,1.325292016710448983e+01
5.803691324119482964e+00,1.810841810799351492e+01
5.965709115375190663e+00,2.000000000000000000e+01
6.041182436939897649e+00,1.257353225189656243e+01
6.098323412814823818e+00,1.055246223581997000e+01
6.148257129437809887e+00,9.515565405122289988e+00
6.194142025860697842e+00,8.886233804878671094e+00
6.237492965873612683e+00,8.484021720461639049e+00
6.279235138309562814e+00,8.234821394639908476e+00
6.320041738213147298e+00,8.106684415482344974e+00
6.360488364274913486e+00,8.091002665669618565e+00
6.401156670331915599e+00,8.199132562373288025e+00
6.443783939992420606e+00,8.901960626935984777e+00
6.489697391204433785e+00,9.535518810604193263e+00
6.540299992434876586e+00,1.090197209768660258e+01
6.603681120822117556e+00,1.595656215680450174e+01
6.715326649813720294e+00,1.431421223566371026e+01
6.774800600397156813e+00,1.040385698480300647e+01
6.822295377506904401e+00,8.768350265401062771e+00
6.863558902638523307e+00,7.805939650042068578e+00
6.900846555022128292e+00,7.144825902756082314e+00
6.935282437011212053e+00,6.650958132198312001e+00
6.967529479177733798e+00,6.261969641998889280e+00
6.998020079250901304e+00,5.944173656962815855e+00
7.027055999520620766e+00,5.677477431076398240e+00
7.054705298584756257e+00,5.389618595915305121e+00
7.081016994674717679e+00,5.140767105176706764e+00
7.106163758378821527e+00,4.922466399304468609e+00
7.130282375573265163e+00,4.728647359860044475e+00
7.153483492269977262e+00,4.554819969281124870e+00
7.176031970816287853e+00,4.465724022989972397e+00
7.197989831201751620e+00,4.319633494508248184e+00
7.219248747872382133e+00,4.185822659692166603e+00
7.239865593171800562e+00,4.062543946975432085e+00
7.259889364783778554e+00,3.948380073600110673e+00
7.279362634772209795e+00,3.842167251779944781e+00
7.298322670059066652e+00,3.742939249856712003e+00
7.316802311479956522e+00,3.649885907138327834e+00
7.334830672402276264e+00,3.562321871729361433e+00
7.352433700418884222e+00,3.479662701594664842e+00
7.369634633705751448e+00,3.401406356429139244e+00
7.386454375335778977e+00,3.327118694992430292e+00
7.402911802967983235e+00,3.256421988780310528e+00
7.419024027107697705e+00,3.188985735153855305e+00
7.434806608052208610e+00,3.124519243209501251e+00
7.450273739358586056e+00,3.062765600505748420e+00
7.465438403966433434e+00,3.003496725690982583e+00
7.480312507819043333e+00,2.946509282648261063e+00
7.494906994840995651e+00,2.891621283761717009e+00
7.509257217833888554e+00,2.848671741860902440e+00
7.523371663896272210e+00,2.797395386600431966e+00
7.537233950071096089e+00,2.747786470310126905e+00
7.550852103825858919e+00,2.699723056711198943e+00
