Angle (rad),Angular Velocity (rad/s)
3.000254246110151346e+00,1.016620872020183308e-01
3.001015938917987569e+00,2.029153479027664408e-01
3.002282095427228015e+00,3.033867745072032496e-01
3.004047913355367694e+00,4.027231604453809233e-01
3.006306891623214739e+00,5.005994762003563858e-01
3.009050989157954881e+00,5.967257637049154795e-01
3.012270813903397570e+00,6.908522951999355177e-01
3.015955833043670431e+00,7.827728954982439147e-01
3.020094595310291119e+00,8.723264713469081055e-01
3.024674956775709855e+00,9.593969124785552971e-01
3.029684302592870804e+00,1.043911616289812994e+00
3.035109758541687075e+00,1.125838938674051493e+00
3.040938387809730248e+00,1.205184889743981191e+00
3.047157370008397592e+00,1.281989381257612415e+00
3.053754160886739566e+00,1.356322300693581617e+00
3.060716632474515198e+00,1.428279643526657594e+00
3.068033194425450194e+00,1.497979887774387953e+00
3.075692898135970133e+00,1.565560749139311536e+00
3.083685525803312899e+00,1.631176415082695730e+00
3.092001666995325415e+00,1.694995324339952480e+00
3.100632785576522110e+00,1.757198535874978651e+00
3.109571280018778250e+00,1.817978718405930172e+00
3.118810540268572407e+00,1.877539788375956142e+00
3.128345004493843007e+00,1.936097230571930838e+00
3.138170219240978831e+00,1.993879151893843238e+00
3.148282906848519858e+00,2.051128146208121450e+00
3.158681044449858533e+00,2.108104089173549855e+00
3.169363959629891703e+00,2.165088040666636626e+00
3.180332448885410113e+00,2.222387516054241896e+00
3.191588926626988343e+00,2.280343507611962917e+00
3.203137614776426556e+00,2.339339812591242573e+00
3.214984786404481820e+00,2.399815485465763842e+00
3.227139081864634385e+00,2.462281629901515334e+00
3.239611923393584725e+00,2.527344368421327037e+00
3.252418065637572298e+00,2.595736828302474652e+00
3.265576337543535157e+00,2.668364640327339998e+00
3.279110659988455190e+00,2.746372289777021969e+00
3.293051471628396065e+00,2.831242725079636369e+00
3.307437778554453534e+00,2.924952069085721362e+00
3.322320193523756071e+00,3.030219809042725476e+00
3.337765616912749866e+00,3.150933552518897507e+00
3.352594294144760401e+00,2.772602224388598824e+00
3.366761041842622149e+00,2.897487676244774768e+00
3.381609947802546756e+00,3.046994203774058718e+00
3.397291925132310819e+00,3.233384494763616779e+00
3.414041968492388612e+00,3.479440376772425125e+00
3.432263863090149858e+00,3.834281800890300129e+00
3.452776872243771944e+00,4.434353148248906251e+00
3.477958653579812154e+00,5.956102912276461048e+00
3.522470279534034354e+00,6.074441667498676090e+00
3.546281502367382377e+00,4.057350907197845302e+00
3.564787392682562839e+00,3.426396010707565942e+00
3.581013162673338357e+00,3.092254391997684593e+00
3.595905714518097707e+00,2.878554393639922271e+00
3.608542407358340309e+00,2.208754954322586617e+00
3.620244359535399248e+00,2.461973722119360719e+00
3.632365237716757012e+00,2.389279229654844627e+00
3.644161898867473770e+00,2.331502308839225712e+00
3.655698645858477036e+00,2.284796848063906705e+00
3.667023964680366177e+00,2.246574803313589719e+00
3.678175480311836054e+00,2.215020846343883854e+00
3.689183074138359331e+00,2.188818441358187261e+00
3.700900441948472341e+00,2.490823556684218509e+00
3.713255780074894208e+00,2.452369334971424841e+00
3.725433721933974596e+00,2.419677375123980401e+00
3.737460496318083969e+00,2.391758228507190331e+00
3.749357972285830787e+00,2.367845260700379928e+00
3.761144611895116174e+00,2.347334053131916232e+00
3.772836171147810447e+00,2.329740863742051360e+00
3.784446226240359756e+00,2.314673428955690504e+00
3.795986575716987055e+00,2.301809985766220645e+00
3.807467552626642160e+00,2.290883905989763214e+00
3.818898270210752344e+00,2.281672246771522250e+00
3.830286817693326018e+00,2.273987087569118160e+00
3.841640418063637430e+00,2.267668884610068325e+00
3.852965556525737689e+00,2.262581309172352562e+00
3.864268086038595840e+00,2.258607192840617728e+00
3.875553314769354163e+00,2.255645309372175333e+00
3.886826079125334843e+00,2.253607796380115325e+00
3.898090805183024976e+00,2.252418071686914214e+00
3.909351560703576034e+00,2.252009135985628241e+00
3.920612099452436716e+00,2.252322179996311124e+00
3.931875899182676548e+00,2.253305433707273320e+00
3.943146194367114887e+00,2.254913209631804527e+00
3.954426004552095364e+00,2.257105102724260348e+00
3.965718159040094282e+00,2.259845317682174670e+00
3.976877236526072057e+00,2.204511043842252160e+00
3.987912740447314697e+00,2.209754311332801091e+00
3.998975403130099693e+00,2.215371741352130996e+00
4.010067054928924790e+00,2.221347473385489213e+00
4.021316897194343376e+00,2.278126705999755419e+00
4.032843819542266672e+00,2.332204446791580121e+00
4.044634687678223983e+00,2.383729729680420295e+00
4.056677107978194918e+00,2.432849594085437328e+00
4.068959414813895670e+00,2.479708046938890575e+00
4.081470653302389451e+00,2.524445264614393558e+00
4.094200558594349282e+00,2.567197001013008961e+00
4.107139532652272607e+00,2.608094170466771722e+00
4.120278619320338898e+00,2.647262577005864426e+00
4.133609478353029054e+00,2.684822764625934166e+00
4.147124358950561529e+00,2.720889966295063189e+00
4.160816073245465319e+00,2.755574132425925526e+00
4.174677970095276081e+00,2.788980022325365571e+00
4.188703909460370411e+00,2.821207344674582007e+00
4.202888237582029340e+00,2.852350935367839124e+00
4.217225763122564253e+00,2.882500963043960418e+00
4.231711734385509516e+00,2.911743154392676836e+00
4.246341817698140453e+00,2.940159032824708252e+00
4.261112077009838295e+00,2.967826165381845627e+00
4.276018954736998445e+00,2.994818413854777539e+00
4.291059253867391732e+00,3.021206186995573084e+00
4.306157287923879196e+00,3.018240280445581902e+00
4.321313221528481741e+00,3.044055796561477401e+00
4.336597122796320036e+00,3.069437375999297224e+00
4.352006970534199937e+00,3.094444029462687595e+00
4.367541033004822992e+00,3.119132565072865848e+00
4.383197857457737712e+00,3.143557805286833595e+00
4.398976260735311783e+00,3.167772799971434239e+00
4.414875320934817715e+00,3.191829035845475282e+00
4.430894370109474956e+00,3.215776642697454335e+00
4.447032987993686071e+00,3.239664596957407383e+00
4.463290996741018368e+00,3.263540923353983381e+00
4.479668456667462273e+00,3.287452895528445218e+00
4.496165662997227308e+00,3.311447236611530620e+00
4.512783143613673609e+00,3.335570320902287555e+00
4.529521657824016501e+00,3.359868377925195215e+00
4.546382196153203381e+00,3.384387700288174816e+00
4.563365981189835274e+00,3.409174856924638952e+00
4.580446849570989798e+00,3.423466847248892275e+00
4.597627821732355180e+00,3.448984938672526646e+00
4.614937368916168126e+00,3.474905044899310180e+00
4.632377625085955408e+00,3.501276942531236003e+00
4.649950976627658328e+00,3.528151870068509499e+00
4.667660070368245151e+00,3.555582815092312110e+00
4.685507823086370038e+00,3.583624824542746445e+00
4.703497432640643794e+00,3.612335342223111034e+00
4.721632390863297779e+00,3.641774578310526866e+00
4.739916498392815924e+00,3.672005916432850459e+00
4.758353881649192374e+00,3.703096364812699104e+00
4.776949012190723209e+00,3.735117059118872263e+00
4.795706728732804791e+00,3.768143826050963430e+00
4.814632262158414555e+00,3.802257818374812359e+00
4.833731263908558340e+00,3.837546234201657747e+00
4.853018041110357395e+00,3.877473039393208865e+00
4.872502853056668748e+00,3.916720520200338118e+00
4.892177206797441613e+00,3.953214614889530409e+00
4.912045155771283866e+00,3.994243072352865465e+00
4.932136149371825873e+00,4.042561207880701168e+00
4.952500141794858202e+00,4.103661806269767176e+00
4.973123887753120975e+00,4.146119086545342114e+00
4.993976426179514760e+00,4.195288370751233842e+00
5.015100749091603305e+00,4.255003003035700004e+00
5.036575610389165902e+00,4.335846365633901911e+00
5.058468708252702228e+00,4.422389743797512374e+00
5.080809996356784097e+00,4.515229519120443236e+00
5.103632649684345601e+00,4.615061038481139022e+00
5.126973611637644979e+00,4.722700421351921918e+00
5.150874265035929156e+00,4.839112618192426218e+00
5.175381263530180576e+00,4.965447962508588553e+00
5.200547573476436369e+00,5.103090446602490005e+00
5.226433795967011520e+00,5.253722464112412283e+00
5.253109867912905351e+00,5.419413136027771749e+00
5.280657285433370873e+00,5.602741159488367373e+00
5.309172061987442071e+00,5.806969460055695365e+00
5.338768744773162211e+00,6.036299808085833440e+00
5.369585997420459833e+00,6.296254961751907686e+00
5.401794575600968429e+00,6.594272083760672309e+00
5.435609098079051016e+00,6.940662312241508758e+00
5.471306115030595940e+00,7.350240282601922637e+00
5.509253217394317836e+00,7.845263977161799573e+00
5.549958895628401834e+00,8.461162453846586828e+00
5.594165076670928549e+00,9.258885692194308348e+00
5.643038945189413624e+00,1.035555862443920638e+01
5.698641440174488260e+00,1.201854801288344277e+01
5.765438003347503226e+00,1.508396553694589315e+01
5.859828752577347366e+00,2.000000000000000000e+01
5.971073917661634312e+00,1.098574090840738648e+01
6.015534281491095037e+00,7.566294229872463362e+00
6.049526038050198729e+00,6.166967053136762189e+00
6.078269215683411275e+00,5.380850222785363179e+00
6.103697583215607736e+00,4.816964825957348317e+00
6.126643247757750821e+00,4.377211364952060535e+00
6.147598119434735331e+00,4.015152872803082751e+00
6.166881364780498309e+00,3.705362894512561844e+00
6.184712987267614537e+00,3.432488171762153151e+00
6.201251018351612743e+00,3.186577700380468503e+00
6.216612255929508279e+00,2.960825413321714894e+00
6.230884707841283010e+00,2.750375809743037081e+00
6.244135500863853494e+00,2.551646686040186296e+00
6.256416151255517200e+00,2.361923645616762268e+00
6.267766222587243696e+00,2.179106569140000893e+00
6.278215958149590215e+00,2.001545443545391656e+00
6.287788240091004788e+00,1.827930940498897927e+00
6.296500094461313424e+00,1.657219647565105980e+00
6.304363882510419792e+00,1.488581753056624102e+00
6.311388269815771501e+00,1.321363466536880971e+00
6.317579033374943975e+00,1.155059098265951434e+00
6.322939745802883316e+00,9.892893407467450162e-01
6.327472361229612652e+00,8.237833356568221577e-01
6.331177717327184595e+00,6.583628195251700621e-01
6.334055960695591736e+00,4.929271608115765035e-01
6.336106897964310036e+00,3.274385090131727294e-01
6.337330271932761327e+00,1.619066120246258067e-01
6.337135067820903522e+00,-2.399514929002699304e-01
6.335079409249325444e+00,-5.821735406491367337e-01
6.331756633902556608e+00,-7.469093402031421469e-01
6.328491414673318438e+00,-5.594576529956196698e-01
6.324694336172624887e+00,-9.591572999090420826e-01
6.319048210101021468e+00,-1.299133608563231901e+00
6.312140924614814352e+00,-1.463904741555168698e+00
6.305278351558535554e+00,-1.281614687164078337e+00
6.297871972983266176e+00,-1.680995530584774356e+00
6.290491243055670090e+00,-1.271841050944496399e+00
6.283270551435791162e+00,-1.616712934364891829e+00
6.274753840909685465e+00,-1.790443061296349780e+00
6.266229168514487746e+00,-1.619791574931882971e+00
6.257537342139874781e+00,-1.857618499894139630e+00
6.249101179055927879e+00,-1.516870453058092982e+00
6.240468573550072229e+00,-1.937331646163375165e+00
6.231773777631606670e+00,-1.540241734181218236e+00
6.223145653238258745e+00,-1.912391067450903481e+00
6.213081498592834429e+00,-2.114583622480401104e+00
