Angle (rad),Angular Velocity (rad/s)
3.000423801480182728e+00,1.694349247712331752e-01
3.001692726359103780e+00,3.378975506404335860e-01
3.003799681838373203e+00,5.045057992234351918e-01
3.006733351732337578e+00,6.684582348368922622e-01
3.010478680915248617e+00,8.290652127703731500e-01
3.015017493962145245e+00,9.857711806799821508e-01
3.020329201442115252e+00,1.138167427553493649e+00
3.026391546910764507e+00,1.285995787737894913e+00
3.033181352671039388e+00,1.429144743349867852e+00
3.040988892921198339e+00,1.692513930593357641e+00
3.049783460255978351e+00,1.824565614799736002e+00
3.059227400128383234e+00,1.952330881257198891e+00
3.069300369986170729e+00,2.076259249567475873e+00
3.079984471532501100e+00,2.196877252768131061e+00
3.091264614569039448e+00,2.314780672872638778e+00
3.103128853410660692e+00,2.430631436008772628e+00
3.115568720716264117e+00,2.545159795317337714e+00
3.128579587030809073e+00,2.659172588132464377e+00
3.142161079129393908e+00,2.773568742223930794e+00
3.156317597711517209e+00,2.889363899613218489e+00
3.171058986971377003e+00,3.007727174441970686e+00
3.186401427973982070e+00,3.130034947543723245e+00
3.201185620970750545e+00,2.782622919857425270e+00
3.215413426934560892e+00,2.909407712055605444e+00
3.230290307238838032e+00,3.042573653776029285e+00
3.246477302471874271e+00,3.436173871345635344e+00
3.264057317392340618e+00,3.598554191614176112e+00
3.282494650862486818e+00,3.780091881939420251e+00
3.301902122336830114e+00,3.988086651649279002e+00
3.322437977299534051e+00,4.233787883957580434e+00
3.344333109763321321e+00,4.535822398668514666e+00
3.367944937784864479e+00,4.928193002659609689e+00
3.393879736360997157e+00,5.482547929429014033e+00
3.423337997831460200e+00,6.390687853509705363e+00
3.459607322031283072e+00,8.518509928780694906e+00
3.527344586315583008e+00,1.036375680198707450e+01
3.565226832961978953e+00,6.159232968490065296e+00
3.592710164887354285e+00,4.987092428090878826e+00
3.615958248843174516e+00,4.363728611897164100e+00
3.636702061033692424e+00,3.958698824720117582e+00
3.655733194477036818e+00,3.668107069391944641e+00
3.673497656968649494e+00,3.446884283178877961e+00
3.690278272566582807e+00,3.271707259482024011e+00
3.706268684453463802e+00,3.129062669678369435e+00
3.721608845160786494e+00,3.010476588866549452e+00
3.736404064109836831e+00,2.910314157272594127e+00
3.750736099113026967e+00,2.824654664004116356e+00
3.764670028914630873e+00,2.750669808570324282e+00
3.778258725477950719e+00,2.686258348861593870e+00
3.791545882255697553e+00,2.629820505115942009e+00
3.804568133245449957e+00,2.580112839712418005e+00
3.817356577458284494e+00,2.536151636296116063e+00
3.829937901893088803e+00,2.497146653061333321e+00
3.842335225851964520e+00,2.462454535472494488e+00
3.854568747188981348e+00,2.431545321588787445e+00
3.866656244808529763e+00,2.403977887073133424e+00
3.878613474894355484e+00,2.379381630257942692e+00
3.890454487279228157e+00,2.357442599097101077e+00
3.902191880914256394e+00,2.337892835991602247e+00
3.913837012277626926e+00,2.320502090918016069e+00
3.925400166979330141e+00,2.305071302728559868e+00
3.936890702267843878e+00,2.291427417881672035e+00
3.948317166301252623e+00,2.279419232916799043e+00
3.959687398694140104e+00,2.268914029174847524e+00
3.971008615848561796e+00,2.259794826820656688e+00
3.982287483824013652e+00,2.251958127505335749e+00
3.993530180929219409e+00,2.245312045917783106e+00
4.004742451779777390e+00,2.239774753334542901e+00
4.016163101065255425e+00,2.327681547619740776e+00
4.028011401635966493e+00,2.410869481570475426e+00
4.040264283823593594e+00,2.489550517083468861e+00
4.052899765207496507e+00,2.563946779895228012e+00
4.065896989917758830e+00,2.634286082788670047e+00
4.079236247458489117e+00,2.700798201682988786e+00
4.092898974669840761e+00,2.763711843742246543e+00
4.106867744112384422e+00,2.823252235715487668e+00
4.121126241785496802e+00,2.879639256446275386e+00
4.135659236710748310e+00,2.933086038010166874e+00
4.150452544541923139e+00,2.983797963700930644e+00
4.165492987018190263e+00,3.031971996852746987e+00
4.180768348763687747e+00,3.077796281315774873e+00
4.196267332658839777e+00,3.121449961614233271e+00
4.211979514766797550e+00,3.163103177939757149e+00
4.227895299591194700e+00,3.202917197865339904e+00
4.244005876266517596e+00,3.241044652829376371e+00
4.260303176136670089e+00,3.277629852948901412e+00
4.276779832057495234e+00,3.312809158552977973e+00
4.293429139661650851e+00,3.346711390999808966e+00
4.310245020746187095e+00,3.379458268898603013e+00
4.327221988881586157e+00,3.411164858856569726e+00
4.344355117292821866e+00,3.441940032380333747e+00
4.361640009026934273e+00,3.471886922635100348e+00
4.379072769394127818e+00,3.501103376479212326e+00
4.396649980650348510e+00,3.529682398589923942e+00
4.414368678876259722e+00,3.557712585638661551e+00
4.432226332999726459e+00,3.585278549402479253e+00
4.450220825905316424e+00,3.612461328453630216e+00
4.468350437574117429e+00,3.639338788685636761e+00
4.486613830199780217e+00,3.665986013441781211e+00
4.505010035231608256e+00,3.692475684436305805e+00
4.523538442302402096e+00,3.718878455022160523e+00
4.542198790007359044e+00,3.745263317681403414e+00
4.560991158510442567e+00,3.771697967912752691e+00
4.579915963966264769e+00,3.798249166981247260e+00
4.598973954758561078e+00,3.824983106292376700e+00
4.618166209570940595e+00,3.851965776472121128e+00
4.637494137321890086e+00,3.879263344589982232e+00
4.656959479014160408e+00,3.906942543370254040e+00
4.676564311569080701e+00,3.935071076715132676e+00
4.696311053739328223e+00,3.963718046432085806e+00
4.716202474219797658e+00,3.992954405741147905e+00
4.736241702106106288e+00,4.022853445964424957e+00
4.756432239884690993e+00,4.053491323805642921e+00
4.776777979178488565e+00,4.084947637856426894e+00
4.797283219518985398e+00,4.117306064474038685e+00
4.817952690470653110e+00,4.150655065033674873e+00
4.838791577499331531e+00,4.185088678858448930e+00
4.859805552054529798e+00,4.220707418989973370e+00
4.881000806430022543e+00,4.257619291535921668e+00
4.902384094081607024e+00,4.295940963820410907e+00
4.923962776220616178e+00,4.335799112236055741e+00
4.945744875673605101e+00,4.377331987910512368e+00
4.967739139211299282e+00,4.420691247535920354e+00
4.989955109815140233e+00,4.466044108619914965e+00
5.012403210683046950e+00,4.513575903896891006e+00
5.035137749242288407e+00,4.580960220129468574e+00
5.058220374690645116e+00,4.652883679681266926e+00
5.081674932530727773e+00,4.729817510991527918e+00
5.105527805324673096e+00,4.812307659986993613e+00
5.129808324519650853e+00,4.900990716848431461e+00
5.154549272368251778e+00,4.996614238941964103e+00
5.179787499500807968e+00,5.100062987167799378e+00
5.205564692789098835e+00,5.212393234209283577e+00
5.231928341181748543e+00,5.334878271236567215e+00
5.258932966296706368e+00,5.469069733103845365e+00
5.286641713056132730e+00,5.616881723834546314e+00
5.315128439424061213e+00,5.780708559362714105e+00
5.344480512970392283e+00,5.963593371743892924e+00
5.374802633495066928e+00,6.169475969137236504e+00
5.406222188158156250e+00,6.403568490229633703e+00
5.438896973159604187e+00,6.672945534256560229e+00
5.473026717487123882e+00,6.987511788548245839e+00
5.508871014117196374e+00,7.361673490199194703e+00
5.546778705570264201e+00,7.817419166047531398e+00
5.587239337210550438e+00,8.390490562431093480e+00
5.630981528417151161e+00,9.144196673006526055e+00
5.679185718747040923e+00,1.020561119101702374e+01
5.734039716005464804e+00,1.188679184579032366e+01
5.800777169040780556e+00,1.532959697949485722e+01
5.916581881765607065e+00,2.000000000000000000e+01
5.952983435605736062e+00,4.595435483975721880e+00
5.973145683875810796e+00,3.624193677359402344e+00
5.990001517828471123e+00,3.161721269754892649e+00
6.005051485304389480e+00,2.877899309321535704e+00
6.019864460313260501e+00,3.042804784431292653e+00
6.035444196511924098e+00,3.186345816089695138e+00
6.051706533248637498e+00,3.316963029672372887e+00
6.068601634001308476e+00,3.440210781922500516e+00
6.086102885477734148e+00,3.559973802983169566e+00
6.104200449385409399e+00,3.679165419223950018e+00
6.122897540139910610e+00,3.800148309285750869e+00
6.142208395839485746e+00,3.925006535995820389e+00
6.162157393470990563e+00,4.055740078788589109e+00
6.182779035537482315e+00,4.194424557658081198e+00
6.204118711629678984e+00,4.343365928509141050e+00
6.226234275709575883e+00,4.505276624673112629e+00
6.249198620513390701e+00,4.683504311298141154e+00
6.273103618033426976e+00,4.882359188177366249e+00
6.298066095395246755e+00,5.107618014493239933e+00
6.324237055597404122e+00,5.367351370523128828e+00
6.351816412669548662e+00,5.673372424088562127e+00
6.381077776934200863e+00,6.043970809188071058e+00
6.412413178493403976e+00,6.509577420161845041e+00
6.446421991340941737e+00,7.126071180906049740e+00
6.484114687949684708e+00,8.012359112088182300e+00
6.527496931219008758e+00,9.492470441050206986e+00
6.582201136761552718e+00,1.311424726528153073e+01
6.691415557627271582e+00,1.674616645758673172e+01
6.753725828790458685e+00,1.011958744636954854e+01
6.798351773239759588e+00,7.988254415833877076e+00
6.835092082453616769e+00,6.798499286030224020e+00
6.866966518875417869e+00,5.995939369611643421e+00
6.895390779524786851e+00,5.399831933015970975e+00
6.921173739503288402e+00,4.930213374351939848e+00
6.944832959113646176e+00,4.545163873418912814e+00
6.966724986673058950e+00,4.220165666160538898e+00
6.987108615071064399e+00,3.939731496558013024e+00
7.006179140849701170e+00,3.693501589328207046e+00
7.024258129052235233e+00,3.540703670381558421e+00
7.041609927027284499e+00,3.402179158419293969e+00
7.058299744448619073e+00,3.275565928788530368e+00
7.074382342823901659e+00,3.159019076495289013e+00
7.089904253459613948e+00,3.051072517352551916e+00
7.104905418797628158e+00,2.950543569636691732e+00
7.119420431444736685e+00,2.856465524798097455e+00
7.133479485927384900e+00,2.768038958151962881e+00
7.147109121093317974e+00,2.684595896178035623e+00
7.160332807173229952e+00,2.605572996094346117e+00
7.173171415715286159e+00,2.530491165204459492e+00
