Angle (rad),Angular Velocity (rad/s)
3.000423801480182728e+00,1.694349247712331752e-01
3.001692726359103780e+00,3.378975506404335860e-01
3.003799681838373203e+00,5.045057992234351918e-01
3.006733351732337578e+00,6.684582348368922622e-01
3.010478680915248617e+00,8.290652127703731500e-01
3.015017493962145245e+00,9.857711806799821508e-01
3.020329201442115252e+00,1.138167427553493649e+00
3.026391546910764507e+00,1.285995787737894913e+00
3.033498973866456616e+00,1.555597868468652223e+00
3.041620169076143299e+00,1.692086714249411816e+00
3.050412147788039263e+00,1.823963055603849970e+00
3.059547488175863972e+00,1.830029620597555251e+00
3.069012814805282652e+00,1.955502211987585115e+00
3.079096905396710326e+00,2.077614344805048585e+00
3.089784205332056111e+00,2.196877042983030215e+00
3.101061891421355021e+00,2.313871400124381417e+00
3.112920219293322965e+00,2.429248190939294005e+00
3.125352881432649887e+00,2.543732660479717467e+00
3.138357404132315676e+00,2.658135500806010576e+00
3.151935617767493092e+00,2.773371508368450478e+00
3.166094244170532868e+00,2.890488248977320040e+00
3.180845659683749105e+00,3.010708437125483528e+00
3.196208916245062870e+00,3.135492031624758091e+00
3.212211141768980038e+00,3.266627965771836006e+00
3.228889506309382984e+00,3.406372361677753702e+00
3.246294053414758629e+00,3.557662904098493062e+00
3.264491899798113383e+00,3.724464054061547902e+00
3.283573693196546905e+00,3.912349639324866679e+00
3.303664000451592031e+00,4.129545229248289928e+00
3.324939009693779646e+00,4.388936683528624094e+00
3.346432876108385024e+00,4.205719903759510991e+00
3.368309149099825373e+00,4.560787687751414410e+00
3.392255944813252100e+00,5.047204968631559652e+00
3.417647513623288891e+00,5.121424296211698923e+00
3.445719431421321755e+00,6.246903092278961012e+00
3.483982253528429496e+00,1.041049662801569831e+01
3.548834030464054656e+00,8.974016247566348525e+00
3.585987621015192861e+00,6.477857115635565322e+00
3.615509029996788470e+00,5.442461333431297454e+00
3.641102887612423178e+00,4.839435743958763858e+00
3.664220520678084458e+00,4.430675723555382639e+00
3.685234053135154397e+00,3.995037094797872168e+00
3.704642089216807488e+00,3.776559540951689442e+00
3.723070098034070519e+00,3.600590687600982331e+00
3.740699122510104946e+00,3.455429008237135946e+00
3.757662967678874644e+00,3.333492746771097082e+00
3.774064062823490939e+00,3.229612859137454439e+00
3.789983023662602868e+00,3.140121332509408614e+00
3.805484739980978581e+00,3.062329854031391907e+00
3.820841747416174439e+00,3.080132378243137570e+00
3.836078097774040518e+00,3.015758790521183563e+00
3.851011791518485605e+00,2.958868259266467238e+00
3.865677436114842713e+00,2.908378161592652500e+00
3.879891763047568443e+00,2.779621984787437050e+00
3.893696257317004417e+00,2.742860649867418399e+00
3.907326812085336165e+00,2.709967622540894627e+00
3.920619845372544265e+00,2.608821219872067942e+00
3.933602992092595674e+00,2.584880859184875312e+00
3.946704248022364414e+00,2.654785817261092973e+00
3.959922151106586963e+00,2.632784373838326974e+00
3.973186507997205297e+00,2.672553012649275583e+00
3.986500085642022295e+00,2.653244153516118864e+00
3.999722450183152311e+00,2.636036542142153660e+00
4.012863659805979921e+00,2.620754900749630245e+00
4.025807093941520698e+00,2.557486009767553803e+00
4.038446753852916515e+00,2.499160117529368286e+00
4.051107378790069546e+00,2.564491333771921955e+00
4.063796831937525944e+00,2.511991470684901806e+00
4.076383511645460089e+00,2.522695163761405013e+00
4.088880293915003072e+00,2.476628454983913485e+00
4.101431896352905504e+00,2.543454501642089305e+00
4.114043973737349091e+00,2.501935071000769728e+00
4.126456610987528251e+00,2.463635099714787557e+00
4.138685281508946545e+00,2.428310135215259624e+00
4.150879484620010551e+00,2.449307794192363552e+00
4.163047625413337727e+00,2.418378207982220029e+00
4.175067417965543370e+00,2.389940031859548952e+00
4.186950907937107225e+00,2.363831744494039544e+00
4.198709376882774791e+00,2.339908834601832410e+00
4.210353421763943338e+00,2.318041646760470975e+00
4.221893024547445528e+00,2.298113559254550076e+00
4.233337613398956201e+00,2.280019435380910675e+00
4.244696116716808021e+00,2.263664301315035932e+00
4.255977011041177427e+00,2.248962212742672939e+00
4.267188363703221299e+00,2.235835279610623783e+00
4.278337870940182697e+00,2.224212824005839639e+00
4.289432892089219074e+00,2.214030650674178258e+00
4.300480480379599513e+00,2.205230413296884517e+00
4.311487410766035033e+00,2.197759062549288434e+00
4.322460205182119708e+00,2.191568364321665019e+00
4.333405155539721498e+00,2.186614478401555317e+00
4.344328344755713722e+00,2.182857589489096473e+00
4.355235666050141674e+00,2.180261583711451401e+00
4.366132840728504938e+00,2.178793764873702798e+00
4.377025434634321144e+00,2.178424605574509787e+00
4.387918873435692646e+00,2.179127529059497803e+00
4.398818456890574602e+00,2.180878718310976794e+00
4.409729372219287846e+00,2.183656949400953451e+00
4.420656706699112704e+00,2.187443446583126505e+00
4.431605459584156748e+00,2.192221756982941638e+00
4.442580553443834290e+00,2.197977643074449983e+00
4.453586845004961603e+00,2.204698991418305720e+00
4.464629135575488128e+00,2.212375736384630809e+00
4.475771934961473519e+00,2.244673101900057866e+00
4.487018469946360888e+00,2.254100398968339913e+00
4.498353581975721660e+00,2.279942386491617068e+00
4.509781024379025283e+00,2.291195182784167006e+00
4.521267139590500861e+00,2.303411516979658291e+00
4.532849296663267857e+00,2.329458326289193248e+00
4.544531407878960039e+00,2.343549443561536716e+00
4.556297029360010242e+00,2.362807044150902147e+00
4.568150766661029927e+00,2.378854038649514724e+00
4.580087239487003359e+00,2.395902950159900513e+00
4.592111484698356172e+00,2.413965058201565483e+00
4.604228601156983736e+00,2.433053896999905596e+00
4.616443761209914065e+00,2.453185342129542867e+00
4.628762222645948832e+00,2.474377713252458033e+00
4.641189341208804997e+00,2.496651894209707567e+00
4.653730583757187844e+00,2.520031471977217219e+00
4.666391542170481799e+00,2.544542896280849842e+00
4.679189370733342734e+00,2.574549813094246353e+00
4.692128775514349037e+00,2.601414697098750395e+00
4.705205574860998219e+00,2.629514000809313856e+00
4.718426039510786651e+00,2.658887833368785980e+00
4.731796650813633320e+00,2.689580384628188714e+00
4.745324121980953436e+00,2.721640270577993181e+00
4.759015421175051053e+00,2.755120925054581171e+00
4.772877796686236351e+00,2.790081044318093006e+00
4.786917428169282118e+00,2.826014396727672295e+00
4.801142104712623926e+00,2.864131505119176246e+00
4.815561562694439246e+00,2.903940555545732050e+00
4.830184472226924264e+00,2.945527067481417127e+00
4.845009464282164835e+00,2.984699710351332858e+00
4.860045646438115874e+00,3.030110683474473543e+00
4.875314044301028993e+00,3.077605965950860334e+00
4.890825389351039831e+00,3.127311649874109367e+00
4.906551068352579037e+00,3.163100447046750308e+00
4.922466601522329732e+00,3.203320112605605896e+00
4.938572156492091914e+00,3.239039180783246152e+00
4.954915082129664583e+00,3.298611692919713345e+00
4.971552133359296910e+00,3.356662006728366787e+00
4.988414519294549265e+00,3.388377390560337155e+00
5.005475417706676033e+00,3.436288656446383705e+00
5.022759900616564188e+00,3.477724374199980151e+00
5.040254955885273169e+00,3.520537116710963588e+00
5.057967770842428656e+00,3.564849710154071705e+00
5.075880919131119384e+00,3.600558734692860696e+00
5.094001844597204176e+00,3.648119291481055182e+00
5.112365331887104070e+00,3.697612384254354012e+00
5.130981494018246991e+00,3.749221559637680112e+00
5.149861415677065679e+00,3.803152512598485746e+00
5.169017273152533676e+00,3.859636885160529385e+00
5.188462475245109395e+00,3.918936890008565932e+00
5.208211829805835080e+00,3.981350981335803674e+00
5.228281741843651353e+00,4.047220867789646626e+00
5.248794246087264526e+00,4.159110744489399103e+00
5.269871205569942596e+00,4.273082790974976675e+00
5.291438572133258411e+00,4.354778060651752547e+00
5.313428727503140436e+00,4.442322504495553659e+00
5.336028572755112442e+00,4.599974400790254769e+00
5.359286478886931882e+00,4.704621944999584748e+00
5.383090260118607695e+00,4.818560329584405721e+00
5.407490184902170149e+00,4.943373822254579331e+00
5.432545416496220803e+00,5.081056580522616883e+00
5.458558720020846522e+00,5.329489146496698915e+00
5.485643587016101996e+00,5.508138945640801865e+00
5.513681324970835185e+00,5.711578942964164796e+00
5.542811756293657410e+00,5.946541883450916721e+00
5.573215156737862053e+00,6.222708707009465989e+00
5.605131338056811963e+00,6.554646059961958926e+00
5.639010434420677065e+00,7.015219926479897339e+00
5.675652800648023799e+00,7.674113078634785978e+00
5.716358820411454822e+00,8.672435988226776971e+00
5.762624308020035002e+00,9.944485152109059811e+00
5.818496029912751055e+00,1.283483402468665524e+01
5.908473626979490412e+00,2.000000000000000000e+01
5.982400098066822380e+00,8.459979747029301222e+00
6.018435811108562739e+00,6.278501241713676961e+00
6.047319302259952067e+00,5.352794998669738291e+00
6.074275214571760451e+00,5.435024906905766784e+00
6.100331108266355606e+00,5.010469944988361846e+00
6.124924318228039510e+00,4.837532385653629419e+00
6.148286617582650493e+00,4.518908667614415897e+00
6.169399949172559516e+00,3.938792010829229362e+00
6.189024520304553079e+00,3.914185367937794702e+00
6.207811815588662796e+00,3.605891183879848416e+00
6.225425355151064544e+00,3.442635337402926154e+00
6.241972235615844689e+00,3.179027245090533693e+00
6.256803860114832361e+00,2.756099074553381989e+00
6.270422104249441908e+00,2.692413793652648213e+00
6.284028642036800782e+00,2.751294528952827001e+00
6.298814577841771012e+00,3.164662076638236066e+00
6.315405580008475184e+00,3.474116563275704728e+00
6.333437885625976982e+00,3.741993840184797193e+00
6.351969164279132052e+00,3.672479982936919907e+00
6.369573971939498591e+00,3.369376682527237765e+00
6.385503223010034368e+00,3.001041057151318192e+00
6.400524786175982861e+00,3.009195982190113305e+00
6.416105499538420354e+00,3.227246359829864186e+00
6.431649985424918725e+00,2.989229747894616818e+00
6.447047909158061252e+00,3.174508363549602752e+00
6.464197190246371072e+00,3.697730067307755331e+00
6.484587052650610417e+00,4.483593923432215078e+00
6.508709593858634790e+00,5.200638971269013311e+00
6.535536296768150955e+00,5.560848718905416987e+00
6.564131556836775516e+00,5.922288447543054168e+00
6.596489708935638241e+00,7.243666160341199145e+00
6.647050672816485317e+00,2.000000000000000000e+01
6.673106420662480609e+00,4.540387093443417399e+00
6.687442968937583387e+00,1.703707889266929953e+00
6.691973318380470381e+00,1.657260180859236876e-01
6.695664862671318218e+00,1.278961041107594454e+00
6.702513727232561003e+00,1.451318241924639540e+00
6.709306851767657953e+00,1.272368588546902046e+00
6.714214122849472943e+00,7.054976593771257187e-01
